EOG,20151030,85.779999,86.68,84.370003,85.849998,3155500
EOG,20151029,84.32,85.900002,84.129997,85.519997,2819600
EOG,20151028,82.980003,86.169998,82.349998,84.790001,3823200
EOG,20151027,81.839996,82.949997,80.050003,82.699997,5004300
EOG,20151026,85.099998,85.290001,83.25,83.389999,3445800
EOG,20151023,85.089996,86.089996,84.32,85.43,2670400
EOG,20151022,84.629997,86.169998,84.370003,85.800003,2897200
EOG,20151021,84.440002,84.699997,83.410004,83.779999,3005600
EOG,20151020,84.57,85.650002,83.949997,84.870003,3543100
EOG,20151019,86.269997,86.470001,84.110001,84.809998,4199200
EOG,20151016,87.75,88.00,86.559998,87.50,4104500
EOG,20151015,85.300003,87.160004,84.93,87.139999,3609900
EOG,20151014,84.989998,86.139999,84.760002,85.779999,3325400
EOG,20151013,85.129997,86.290001,84.75,85.111998,5605900
EOG,20151012,87.120003,88.00,84.93,85.86052,4804200
EOG,20151009,87.349998,88.300003,86.099998,87.128023,5802200
EOG,20151008,83.309998,87.269997,83.07,86.868533,6795000
EOG,20151007,84.370003,85.400002,82.18,83.60497,6893100
EOG,20151006,80.720001,83.730003,80.550003,82.676802,6777000
EOG,20151005,78.160004,81.699997,78.00,80.491122,7429300
EOG,20151002,72.669998,77.449997,71.589996,76.90819,6032600
EOG,20151001,73.800003,75.68,73.00,73.445025,5683400
EOG,20150930,70.849998,72.940002,70.669998,72.656588,4809200
EOG,20150929,69.860001,70.669998,69.139999,69.991842,3773600
EOG,20150928,71.739998,72.190002,69.099998,69.293224,4581900
EOG,20150925,74.059998,74.209999,72.190002,72.646605,3894300
EOG,20150924,72.290001,73.720001,71.480003,73.11568,4443600
EOG,20150923,75.239998,75.93,72.870003,72.896113,3891400
EOG,20150922,75.43,76.660004,74.690002,75.071818,3433900
EOG,20150921,77.050003,77.330002,75.870003,76.369253,3258700
EOG,20150918,78.860001,79.190002,75.93,76.10977,6047600
EOG,20150917,80.019997,81.18,79.120003,79.503074,5499100
EOG,20150916,77.68,80.169998,77.459999,79.782521,3996000
EOG,20150915,77.040001,77.800003,76.559998,77.097818,3650500
EOG,20150914,77.150002,77.150002,76.040001,76.279434,3705000
EOG,20150911,76.75,77.410004,75.839996,76.998017,4571800
EOG,20150910,77.57,78.239998,76.129997,77.90622,4814700
EOG,20150909,78.739998,79.349998,76.669998,76.778449,6445400
EOG,20150908,77.580002,78.18,75.449997,77.507014,5137600
EOG,20150904,76.220001,77.440002,75.949997,76.738527,4700700
EOG,20150903,78.25,80.160004,76.790001,77.297421,6228100
EOG,20150902,77.059998,77.709999,74.870003,77.556911,5356500
EOG,20150901,76.019997,77.32,75.18,75.870238,6376900
EOG,20150831,76.199997,79.160004,74.57,78.155727,6864000
EOG,20150828,75.50,79.339996,75.410004,77.157697,6962200
EOG,20150827,72.989998,76.099998,72.860001,75.640695,7160700
EOG,20150826,70.209999,71.040001,68.400002,70.850148,6763700
EOG,20150825,72.099998,72.110001,68.290001,68.225332,6720600
EOG,20150824,70.00,73.279999,68.150002,69.12356,9518800
EOG,20150821,76.389999,77.43,74.120003,74.712527,7769100
EOG,20150820,77.019997,78.440002,76.610001,76.578846,6793500
EOG,20150819,79.870003,79.879997,76.07,76.918172,6122900
EOG,20150818,79.709999,80.540001,79.279999,80.251597,3536700
EOG,20150817,79.50,80.160004,78.889999,79.852383,3747200
EOG,20150814,79.50,80.879997,78.800003,79.772539,3908100
EOG,20150813,79.300003,80.50,78.339996,79.523031,5889700
EOG,20150812,77.32,80.260002,76.50,79.772539,8234000
EOG,20150811,75.129997,77.43,74.18,77.147723,5976000
EOG,20150810,73.669998,76.480003,73.620003,76.119745,6935200
EOG,20150807,75.25,78.699997,73.029999,73.614695,8476100
EOG,20150806,75.650002,78.339996,75.300003,77.526971,6709500
EOG,20150805,78.059998,78.949997,75.959999,75.9401,4896800
EOG,20150804,77.080002,77.769997,76.349998,76.588821,3981900
EOG,20150803,76.199997,77.629997,75.449997,76.289416,5136500
EOG,20150731,78.00,78.309998,77.00,77.037939,4190200
EOG,20150730,77.650002,78.720001,76.800003,78.385278,4539800
EOG,20150729,76.50,79.010002,76.50,77.586851,6360600
EOG,20150728,73.400002,77.559998,73.400002,76.698605,7887200
EOG,20150727,74.099998,74.730003,72.860001,73.045819,5621300
EOG,20150724,76.099998,76.580002,74.620003,75.011939,5850200
EOG,20150723,76.199997,76.82,75.470001,76.16965,6335400
EOG,20150722,77.18,77.489998,75.760002,75.9401,7205200
EOG,20150721,78.089996,78.379997,76.940002,77.177662,6823700
EOG,20150720,80.239998,80.25,77.919998,77.776479,7054000
EOG,20150717,81.970001,82.150002,80.260002,80.341416,6069300
EOG,20150716,83.739998,83.800003,82.339996,82.237674,4019300
EOG,20150715,84.620003,85.230003,83.050003,83.085998,3917300
EOG,20150714,84.199997,85.639999,84.099998,84.894432,3276100
EOG,20150713,84.529999,84.790001,83.470001,83.878444,3830200
EOG,20150710,85.980003,86.760002,84.449997,84.207146,2903800
EOG,20150709,85.989998,87.349998,85.18,84.964156,3784000
EOG,20150708,86.099998,86.919998,84.00,84.15734,4681200
EOG,20150707,85.779999,87.099998,83.830002,86.378563,5118300
EOG,20150706,84.489998,86.18,84.050003,84.754976,3513300
EOG,20150702,85.949997,86.699997,85.589996,85.332694,2699900
EOG,20150701,87.849998,87.849998,84.839996,85.432299,4644500
EOG,20150630,86.989998,87.900002,86.339996,87.205297,3941400
EOG,20150629,86.989998,87.940002,86.150002,85.910413,4022300
EOG,20150626,87.599998,88.699997,87.080002,87.713284,11406600
EOG,20150625,88.169998,88.269997,87.300003,87.304902,3797800
EOG,20150624,88.540001,89.07,88.099998,87.99218,3785900
EOG,20150623,88.279999,88.82,87.660004,88.440413,3613300
EOG,20150622,88.599998,88.669998,87.449997,87.733209,2845600
EOG,20150619,88.290001,89.120003,88.239998,87.922456,4298600
EOG,20150618,89.760002,90.129997,88.540001,88.460331,3602500
EOG,20150617,90.68,91.150002,88.419998,88.669503,4998100
EOG,20150616,89.07,90.360001,89.029999,89.725335,2286400
EOG,20150615,88.510002,89.860001,88.50,88.86872,2795300
EOG,20150612,90.160004,90.43,89.120003,89.177497,2464100
EOG,20150611,91.00,91.050003,90.230003,90.29309,2300900
EOG,20150610,90.389999,90.709999,89.660004,90.054037,2914800
EOG,20150609,90.019997,91.480003,89.089996,88.739227,2661000
EOG,20150608,89.370003,89.959999,88.629997,88.759153,2755700
EOG,20150605,87.00,90.639999,86.82,89.326908,4429900
EOG,20150604,88.230003,89.129997,87.279999,87.035961,3774200
EOG,20150603,89.550003,90.470001,88.970001,88.659548,2158400
EOG,20150602,89.019997,90.349998,88.209999,89.41655,3581600
EOG,20150601,89.019997,89.120003,88.18,88.410532,2886500
EOG,20150529,89.419998,89.519997,88.260002,88.340808,3948900
EOG,20150528,88.550003,89.360001,88.00,88.798996,3790800
EOG,20150527,89.129997,89.940002,88.510002,88.649585,3016900
EOG,20150526,89.25,89.809998,88.550003,88.798996,3920700
EOG,20150522,90.400002,91.389999,90.07,89.904626,3055500
EOG,20150521,91.169998,91.830002,90.68,91.129779,3958000
EOG,20150520,90.599998,90.720001,89.760002,90.103836,3734400
EOG,20150519,91.480003,91.610001,90.239998,89.904626,3588500
EOG,20150518,90.559998,92.040001,89.900002,91.438564,3018000
EOG,20150515,90.32,91.239998,89.25,90.113799,3267300
EOG,20150514,91.989998,92.080002,90.68,90.372777,3582200
EOG,20150513,94.040001,94.07,90.980003,91.239347,3548300
EOG,20150512,91.760002,93.589996,91.709999,93.042226,3468500
EOG,20150511,94.050003,94.239998,91.470001,91.24931,3952400
EOG,20150508,94.480003,94.50,92.559998,93.131868,4922300
EOG,20150507,96.099998,96.099998,92.419998,93.131868,5197800
EOG,20150506,96.209999,96.860001,94.489998,94.705649,5163500
EOG,20150505,98.699997,100.199997,94.529999,94.167774,11762000
EOG,20150504,99.110001,101.360001,98.550003,98.998677,7312700
EOG,20150501,99.209999,101.00,97.610001,98.510608,3584700
EOG,20150430,100.00,100.440002,98.480003,98.560407,3462000
EOG,20150429,98.220001,99.980003,97.790001,99.347297,3902600
EOG,20150428,97.639999,98.809998,97.639999,98.072338,3736600
EOG,20150427,97.550003,97.959999,96.559998,96.97667,2980500
EOG,20150424,97.900002,97.970001,95.910004,96.339191,3139600
EOG,20150423,97.980003,99.25,97.839996,97.883084,2708400
EOG,20150422,96.940002,98.599998,96.300003,97.315328,2897800
EOG,20150421,97.830002,98.32,96.360001,96.209698,3238300
EOG,20150420,97.18,99.010002,97.18,97.355172,3130700
EOG,20150417,97.040001,97.470001,96.389999,96.847185,3201200
EOG,20150416,97.830002,98.949997,97.169998,97.61415,4054400
EOG,20150415,96.760002,98.339996,96.43,97.574307,5859500
EOG,20150414,95.660004,96.949997,95.339996,96.080212,3204400
EOG,20150413,96.75,96.900002,94.199997,94.149847,3111400
EOG,20150410,95.870003,96.599998,95.25,96.039002,2570400
EOG,20150409,94.110001,96.07,94.110001,95.164025,3408000
EOG,20150408,95.010002,95.580002,93.800003,93.503553,3274400
EOG,20150407,95.199997,95.989998,94.120003,93.732237,5233200
EOG,20150406,93.360001,95.400002,93.300003,94.32882,4770000
EOG,20150402,90.300003,92.970001,89.230003,92.181138,4596300
EOG,20150401,92.040001,93.349998,91.059998,90.69964,3813800
EOG,20150331,91.129997,92.470001,90.830002,91.16696,3576000
EOG,20150330,91.639999,92.50,90.779999,91.61439,3478900
EOG,20150327,90.620003,91.120003,90.139999,90.043401,2539100
EOG,20150326,91.489998,91.93,90.25,90.838841,4857100
EOG,20150325,89.68,90.650002,88.790001,89.446826,3664800
EOG,20150324,89.199997,89.940002,88.639999,88.333212,2681200
EOG,20150323,91.25,91.410004,89.00,88.492303,3200700
EOG,20150320,89.75,91.940002,89.43,90.16272,5980000
EOG,20150319,89.400002,89.900002,88.360001,89.019278,3558700
EOG,20150318,86.080002,91.370003,86.00,90.142837,5386800
EOG,20150317,86.860001,87.970001,86.400002,86.304856,3798600
EOG,20150316,85.110001,88.029999,85.059998,87.398579,4953800
EOG,20150313,85.199997,85.660004,84.099998,84.902895,4415600
EOG,20150312,87.050003,87.190002,85.620003,85.22107,3051700
EOG,20150311,86.419998,87.370003,85.879997,86.056282,3973700
EOG,20150310,86.879997,88.57,86.150002,85.698335,4862400
EOG,20150309,88.080002,89.25,87.639999,87.219606,3443600
EOG,20150306,88.919998,90.00,88.230003,88.064755,4063600
EOG,20150305,89.849998,90.519997,89.370003,89.078934,2688100
EOG,20150304,90.199997,90.949997,88.550003,89.973801,3924800
EOG,20150303,88.980003,91.110001,88.599998,89.85449,4381400
EOG,20150302,89.720001,89.720001,87.080002,88.551958,5347800
EOG,20150227,90.629997,90.709999,89.290001,89.208197,3837600
EOG,20150226,91.809998,92.25,89.610001,89.615854,5427100
EOG,20150225,91.540001,93.25,91.290001,92.499313,5787800
EOG,20150224,92.849998,93.00,91.260002,91.087415,4215000
EOG,20150223,90.059998,92.099998,89.25,91.405589,5501300
EOG,20150220,93.089996,93.459999,90.07,90.560439,7937800
EOG,20150219,86.68,94.739998,86.580002,93.264924,18682400
EOG,20150218,96.489998,96.489998,94.50,94.766305,4534000
EOG,20150217,96.080002,96.669998,95.650002,95.939574,4234300
EOG,20150213,95.940002,96.970001,95.25,96.367122,4158500
EOG,20150212,94.959999,95.239998,93.470001,94.25922,3944500
EOG,20150211,93.839996,94.089996,92.150002,92.668341,6332300
EOG,20150210,96.650002,96.690002,93.839996,94.716595,4308300
EOG,20150209,96.599998,97.230003,95.779999,95.402654,4249100
EOG,20150206,96.989998,97.209999,95.57,95.24357,5177000
EOG,20150205,95.709999,97.290001,95.160004,95.64129,5596600
EOG,20150204,94.400002,97.529999,93.540001,94.646995,9869100
EOG,20150203,94.720001,97.879997,94.650002,95.760601,8906600
EOG,20150202,90.989998,92.57,89.529999,91.99222,5615500
EOG,20150130,88.160004,90.07,87.400002,88.52213,7469900
EOG,20150129,89.120003,89.410004,86.760002,88.40282,5188700
EOG,20150128,92.330002,92.690002,87.760002,87.597435,5772900
EOG,20150127,91.940002,94.410004,91.120003,92.469485,5283000
EOG,20150126,91.230003,92.389999,90.150002,91.803309,3431100
EOG,20150123,90.07,92.519997,89.699997,90.272093,4433700
EOG,20150122,91.379997,91.379997,88.580002,89.844545,4471600
EOG,20150121,90.589996,91.400002,89.68,90.023519,4911900
EOG,20150120,89.089996,89.779999,87.519997,88.820422,5969500
EOG,20150116,86.860001,90.540001,86.540001,89.794828,5483500
EOG,20150115,89.040001,89.50,86.449997,86.036392,4941700
EOG,20150114,84.07,88.089996,83.669998,87.239488,6698200
EOG,20150113,84.970001,86.660004,84.050003,84.407736,5444200
EOG,20150112,85.110001,85.349998,83.199997,83.861958,4810300
EOG,20150109,87.019997,88.029999,86.010002,86.789333,4027200
EOG,20150108,84.720001,87.650002,84.07,86.213779,5836500
EOG,20150107,85.18,85.730003,82.720001,83.038321,5950300
EOG,20150106,85.839996,86.599998,82.760002,83.564255,8142000
EOG,20150105,89.959999,90.779999,86.019997,86.015316,6173600
EOG,20150102,91.010002,92.989998,90.360001,91.532678,3462300
EOG,20141231,91.970001,93.550003,90.75,91.363983,3329200
EOG,20141230,93.50,94.330002,91.889999,91.98915,3379400
EOG,20141229,94.550003,95.209999,93.449997,93.606655,3397000
EOG,20141226,94.900002,95.199997,93.330002,93.100564,2210600
EOG,20141224,95.610001,95.639999,92.510002,93.328803,3012800
EOG,20141223,95.739998,97.269997,94.540001,95.670707,4243900
EOG,20141222,94.209999,95.620003,93.68,94.331053,6746600
EOG,20141219,93.629997,95.089996,92.449997,94.291359,7853400
EOG,20141218,93.830002,94.389999,88.900002,91.741067,8888600
EOG,20141217,87.610001,92.209999,86.110001,90.441114,10269500
EOG,20141216,83.860001,89.389999,83.779999,84.814595,8303700
EOG,20141215,87.089996,88.160004,84.949997,84.685587,6867000
EOG,20141212,85.309998,88.419998,85.099998,85.707695,6606200
EOG,20141211,87.190002,89.760002,86.129997,86.193936,5808100
EOG,20141210,86.379997,87.260002,85.540001,86.124473,8821700
EOG,20141209,87.00,91.120003,86.769997,88.466376,8197500
EOG,20141208,89.080002,89.50,87.510002,87.513739,8672200
EOG,20141205,91.910004,92.050003,89.779999,90.054106,7572500
EOG,20141204,90.790001,93.00,89.75,92.286852,5108100
EOG,20141203,91.709999,93.599998,90.800003,91.096057,6237200
EOG,20141202,87.379997,91.330002,86.870003,89.607559,10146400
EOG,20141201,85.519997,87.580002,83.660004,86.571019,10063500
EOG,20141128,87.160004,88.43,85.190002,86.05501,9472100
EOG,20141126,96.620003,96.629997,93.860001,93.348647,5346100
EOG,20141125,100.279999,100.32,96.720001,95.998171,5591700
EOG,20141124,101.18,101.739998,99.25,98.796546,4110600
EOG,20141121,102.489998,103.040001,101.290001,100.959829,6378000
EOG,20141120,98.449997,100.290001,98.339996,98.677471,4623400
EOG,20141119,98.75,98.800003,96.779999,97.575982,3830800
EOG,20141118,96.32,98.260002,96.089996,96.92104,3917200
EOG,20141117,97.010002,97.379997,95.730003,95.611162,4349400
EOG,20141114,96.32,98.360001,96.199997,97.407288,3992500
EOG,20141113,96.50,97.440002,94.470001,95.114996,5859100
EOG,20141112,98.68,99.349998,97.349998,96.811882,3433600
EOG,20141111,98.50,99.07,97.110001,97.99276,4274300
EOG,20141110,101.010002,102.25,97.989998,97.744677,5947800
EOG,20141107,99.720001,101.580002,99.269997,98.786628,7009200
EOG,20141106,95.190002,99.18,95.110001,98.211074,8202200
EOG,20141105,95.50,97.470001,93.559998,95.363079,11401900
EOG,20141104,89.669998,90.989998,89.00,89.587709,8208000
EOG,20141103,95.050003,96.809998,92.889999,92.604398,7006200
EOG,20141031,91.949997,95.099998,90.739998,94.321135,5495200
EOG,20141030,92.57,93.290001,91.029999,91.512835,3743400
EOG,20141029,94.239998,95.32,91.760002,92.415853,5926100
EOG,20141028,88.809998,91.910004,87.550003,90.798355,6123200
EOG,20141027,90.279999,90.279999,86.949997,87.751896,7433800
EOG,20141024,92.949997,93.019997,90.199997,91.393752,5417400
EOG,20141023,94.239998,94.839996,92.400002,92.683786,9219300
EOG,20141022,96.760002,97.00,91.980003,91.363983,7672400
EOG,20141021,94.349998,96.150002,94.269997,95.293616,6298800
EOG,20141020,91.629997,93.129997,90.769997,92.048695,4420600
EOG,20141017,94.199997,95.550003,90.260002,90.520503,8665500
EOG,20141016,85.190002,92.519997,85.190002,90.570115,10111100
EOG,20141015,82.029999,88.529999,81.07,87.493888,11107300
EOG,20141014,85.400002,86.879997,83.50,83.030376,12228000
EOG,20141013,89.25,90.300003,83.580002,82.951155,9446700
EOG,20141010,91.07,91.949997,88.610001,88.962538,9915400
EOG,20141009,93.639999,93.730003,90.879997,91.071966,9684400
EOG,20141008,93.309998,94.690002,90.800003,93.646857,7723600
EOG,20141007,95.019997,96.019997,93.57,92.706034,5515800
EOG,20141006,96.839996,97.00,94.360001,94.171738,5114400
EOG,20141003,97.720001,97.720001,95.57,95.63745,4433900
EOG,20141002,95.760002,97.639999,94.269997,96.122716,5381500
EOG,20141001,99.209999,99.730003,96.150002,95.914744,5856700
EOG,20140930,101.849998,101.849998,97.449997,98.063788,6422700
EOG,20140929,100.800003,102.059998,100.099998,100.886272,4300400
EOG,20140926,100.370003,102.410004,100.209999,100.89617,3327500
EOG,20140925,102.639999,102.699997,100.139999,99.390851,3588900
EOG,20140924,100.940002,102.870003,99.550003,101.153661,4584400
EOG,20140923,101.550003,101.629997,100.449997,99.866212,5577300
EOG,20140922,103.82,103.860001,100.57,100.757522,4437000
EOG,20140919,105.239998,105.900002,103.959999,103.36213,6346200
EOG,20140918,105.82,105.989998,104.209999,103.96624,3003200
EOG,20140917,105.650002,106.089996,104.519997,104.174211,3689600
EOG,20140916,102.330002,105.900002,101.75,104.20392,4116100
EOG,20140915,100.800003,102.410004,100.120003,100.925887,3055400
EOG,20140912,102.50,102.57,101.029999,100.34158,3699800
EOG,20140911,100.93,103.129997,100.50,102.064775,4596100
EOG,20140910,100.93,102.139999,99.330002,101.024919,3713700
EOG,20140909,101.629997,102.489998,100.82,100.331675,3636000
EOG,20140908,104.07,104.07,100.75,100.430715,5549200
EOG,20140905,104.349998,105.290001,103.050003,104.164306,3235500
EOG,20140904,107.760002,107.989998,103.970001,103.59981,3937200
EOG,20140903,108.849998,109.080002,107.459999,106.699582,1479100
EOG,20140902,109.57,109.849998,107.080002,106.669873,2755100
EOG,20140829,108.800003,109.980003,108.370003,108.818916,1802700
EOG,20140828,108.32,109.080002,108.099998,107.343307,1756800
EOG,20140827,109.43,109.449997,108.07,107.561183,1996700
EOG,20140826,108.860001,110.470001,108.50,108.343556,3283200
EOG,20140825,106.93,108.25,106.599998,106.897655,1932600
EOG,20140822,106.589996,106.839996,105.610001,105.243776,2075400
EOG,20140821,107.50,107.519997,106.019997,106.154898,2138800
EOG,20140820,107.089996,107.449997,106.099998,106.244025,2185900
EOG,20140819,106.099998,107.349998,105.660004,105.996439,3145300
EOG,20140818,106.650002,106.910004,104.660004,104.411892,3275500
EOG,20140815,103.970001,106.419998,103.669998,105.065514,4557700
EOG,20140814,107.220001,107.230003,103.57,102.926377,3490700
EOG,20140813,107.660004,107.879997,106.220001,105.323006,2337400
EOG,20140812,107.889999,108.489998,106.339996,105.659726,3265800
EOG,20140811,108.720001,109.00,107.919998,107.254179,2760600
EOG,20140808,106.07,107.900002,106.07,106.739197,2354100
EOG,20140807,107.629997,107.629997,105.400002,105.035805,2977200
EOG,20140806,107.029999,108.510002,105.629997,105.610206,5007700
EOG,20140805,111.809998,111.809998,107.510002,107.580987,4848700
EOG,20140804,108.739998,112.120003,108.080002,110.730279,3002600
EOG,20140801,108.650002,109.809998,107.160004,106.996688,3966400
EOG,20140731,112.839996,113.089996,109.370003,108.38317,4162500
EOG,20140730,114.830002,115.440002,113.360001,112.532703,1778300
EOG,20140729,113.269997,115.330002,113.190002,113.136813,2502800
EOG,20140728,114.82,115.019997,113.00,112.295023,2993500
EOG,20140725,115.580002,115.860001,114.400002,113.711214,1981100
EOG,20140724,116.480003,116.93,115.699997,115.077885,2864400
EOG,20140723,116.699997,116.699997,115.300003,114.830299,3621600
EOG,20140722,116.75,117.620003,115.800003,115.424511,2600600
EOG,20140721,115.860001,116.43,115.120003,115.028373,1595000
EOG,20140718,115.360001,116.389999,114.339996,114.919434,2605200
EOG,20140717,117.480003,118.809998,115.349998,114.434168,2286700
EOG,20140716,114.620003,117.279999,114.169998,115.969196,3181000
EOG,20140715,114.910004,115.620003,112.639999,112.344543,3367700
EOG,20140714,114.650002,116.050003,114.309998,114.449025,2956100
EOG,20140711,115.739998,115.739998,113.389999,112.430906,2482100
EOG,20140710,114.879997,115.879997,113.760002,113.726852,2212700
EOG,20140709,116.099998,116.629997,115.190002,115.309688,1938800
EOG,20140708,115.370003,116.550003,115.129997,114.735915,2511100
EOG,20140707,116.400002,116.50,115.419998,114.488597,1574500
EOG,20140703,116.269997,117.019997,115.110001,115.497652,1677900
EOG,20140702,116.860001,117.589996,115.540001,114.983233,2649800
EOG,20140701,117.440002,117.940002,116.019997,115.2998,2793600
EOG,20140630,116.080002,117.190002,115.849998,115.606473,2342000
EOG,20140627,115.230003,115.93,114.709999,114.59741,2801600
EOG,20140626,115.68,115.82,114.07,114.181917,2355100
EOG,20140625,113.32,116.25,113.32,114.775479,3456700
EOG,20140624,117.18,117.449997,112.239998,111.807659,4574300
EOG,20140623,118.519997,118.889999,116.949997,116.150576,3328800
EOG,20140620,117.050003,118.389999,116.150002,116.714461,5556100
EOG,20140619,113.139999,115.849998,112.519997,114.557845,3865900
EOG,20140618,112.580002,113.839996,111.739998,112.322086,2912400
EOG,20140617,113.949997,113.949997,111.260002,111.18442,5247000
EOG,20140616,115.209999,115.209999,113.019997,112.806828,4075200
EOG,20140613,111.769997,114.059998,110.529999,112.796933,3126400
EOG,20140612,111.459999,113.019997,111.220001,110.43257,3799500
EOG,20140611,108.25,110.910004,108.139999,109.512546,2683700
EOG,20140610,109.389999,109.75,108.410004,107.524112,2174200
EOG,20140609,110.089996,110.75,109.00,108.335316,2366300
EOG,20140606,108.139999,109.559998,108.040001,108.147351,2151400
EOG,20140605,106.349998,107.910004,105.82,106.742585,2212100
EOG,20140604,106.480003,106.730003,105.559998,105.228998,1695600
EOG,20140603,105.449997,106.660004,105.269997,105.515888,1974800
EOG,20140602,105.949997,106.00,104.949997,104.249612,1712400
EOG,20140530,106.269997,106.360001,105.25,104.665113,2293300
EOG,20140529,105.419998,106.709999,105.00,105.525776,2565500
EOG,20140528,104.860001,105.629997,104.400002,104.061656,2724800
EOG,20140527,104.440002,104.970001,103.75,103.606591,2072500
EOG,20140523,103.889999,105.150002,103.440002,102.854741,2535000
EOG,20140522,104.290001,105.169998,103.529999,102.567851,2457100
EOG,20140521,102.699997,104.360001,102.129997,103.042705,1777500
EOG,20140520,102.220001,102.949997,101.470001,100.797051,1937500
EOG,20140519,102.50,103.360001,101.959999,101.202657,1832600
EOG,20140516,102.57,102.879997,101.339996,101.400508,2846300
EOG,20140515,103.970001,103.980003,101.550003,101.637932,2608100
EOG,20140514,105.389999,105.489998,103.860001,102.785492,2415000
EOG,20140513,104.580002,105.50,104.07,104.041866,3426300
EOG,20140512,102.57,103.730003,101.980003,102.528279,3351800
EOG,20140509,102.00,102.300003,100.639999,101.182867,3709500
EOG,20140508,104.029999,104.559998,101.620003,100.638771,3264300
EOG,20140507,104.610001,105.449997,102.639999,103.665945,5705400
EOG,20140506,102.800003,106.50,101.839996,102.518384,8515800
EOG,20140505,96.040001,99.709999,96.010002,98.18537,4757400
EOG,20140502,97.300003,98.25,96.82,96.018859,3710900
EOG,20140501,98.330002,98.769997,96.809998,96.078221,4240100
EOG,20140430,99.07,99.199997,97.010002,96.948779,6297700
EOG,20140429,98.879997,101.230003,98.830002,98.551404,4089100
EOG,20140428,99.940002,100.00,96.529999,97.008132,5112100
EOG,20140425,103.25,103.300003,98.519997,97.977624,7168000
EOG,20140424,105.50,105.50,103.419998,102.369999,3716000
EOG,20140423,102.529999,105.18,102.529999,103.952835,3445700
EOG,20140422,103.269997,103.269997,102.110001,101.242221,3332800
EOG,20140421,102.980003,103.580002,101.839996,102.419458,2404700
EOG,20140417,100.839996,102.839996,100.839996,101.351041,3253200
EOG,20140416,101.480003,102.199997,100.43,99.926493,3650900
EOG,20140415,99.629997,101.68,99.519997,100.025419,4695400
EOG,20140414,99.519997,100.099998,98.720001,98.887753,3427800
EOG,20140411,97.669998,99.440002,97.57,97.448357,4581500
EOG,20140410,98.629997,99.989998,97.559998,96.93459,4706000
EOG,20140409,98.940002,99.169998,97.989998,97.764523,3826700
EOG,20140408,97.779999,99.580002,97.540001,97.527401,3293600
EOG,20140407,99.720001,99.980003,97.449997,96.756747,3146300
EOG,20140404,102.669998,103.300003,98.949997,98.574699,4028600
EOG,20140403,99.330002,101.50,99.260002,99.444161,5219000
EOG,20140402,98.269997,99.449997,98.019997,97.92261,2858000
EOG,20140401,99.379997,100.360001,98.260002,97.79417,3422900
EOG,20140331,198.470001,199.50,195.050003,96.909888,8285600
EOG,20140328,194.470001,198.820007,194.110001,97.398961,4051000
EOG,20140327,192.289993,195.399994,192.020004,95.571126,3528200
EOG,20140326,192.550003,195.320007,191.899994,94.909148,4117200
EOG,20140325,191.179993,192.970001,190.899994,94.637448,3816400
EOG,20140324,192.25,192.970001,188.460007,93.664248,3461600
EOG,20140321,191.910004,193.160004,189.380005,94.672025,5331800
EOG,20140320,187.619995,190.559998,186.070007,94.024873,4022400
EOG,20140319,189.350006,189.440002,186.029999,92.641645,3165000
EOG,20140318,187.399994,190.520004,187.179993,93.446883,3166000
EOG,20140317,186.600006,188.00,186.00,92.49344,2722400
EOG,20140314,182.970001,186.210007,182.899994,91.870991,3178400
EOG,20140313,186.25,186.649994,181.770004,90.359322,3763800
EOG,20140312,183.600006,186.429993,181.660004,91.456024,4087600
EOG,20140311,189.839996,190.169998,185.320007,91.688209,4103200
EOG,20140310,189.919998,189.919998,187.119995,93.392542,2759200
EOG,20140307,191.520004,191.949997,188.199997,93.822328,3917200
EOG,20140306,190.720001,192.210007,189.330002,94.385498,3450600
EOG,20140305,192.039993,193.220001,190.050003,94.103917,3900800
EOG,20140304,190.470001,192.919998,190.330002,94.632503,4265400
EOG,20140303,189.050003,192.00,188.619995,93.511099,5608400
EOG,20140228,187.720001,191.080002,187.110001,93.575323,5076400
EOG,20140227,186.410004,187.649994,184.490005,92.612005,3779600
EOG,20140226,183.610001,188.410004,182.880005,92.103176,7214400
EOG,20140225,182.850006,185.130005,179.25,90.897791,7461200
EOG,20140224,178.429993,181.619995,177.029999,89.119353,7053200
EOG,20140221,180.470001,180.970001,177.940002,87.933733,5410800
EOG,20140220,179.039993,182.059998,178.149994,88.936572,4512000
EOG,20140219,179.050003,181.610001,178.399994,88.358581,3835000
EOG,20140218,178.119995,180.259995,178.009995,88.88223,3654600
EOG,20140214,175.710007,177.25,174.889999,87.419966,2337600
EOG,20140213,173.580002,176.75,172.600006,86.683888,3432600
EOG,20140212,175.75,176.899994,174.490005,86.506045,2585000
EOG,20140211,174.300003,176.210007,173.559998,86.318319,3298800
EOG,20140210,176.759995,176.759995,173.070007,86.056494,3538200
EOG,20140207,174.770004,176.880005,173.139999,87.192718,4170600
EOG,20140206,167.690002,173.789993,167.690002,85.587186,5142200
EOG,20140205,168.100006,169.699997,166.770004,82.741693,4293000
EOG,20140204,162.669998,168.990005,162.50,83.280162,6576800
EOG,20140203,164.610001,166.860001,161.50,79.901137,4528800
EOG,20140131,164.669998,167.600006,163.179993,81.630171,2639600
EOG,20140130,165.100006,167.50,164.649994,82.069839,2263000
EOG,20140129,165.919998,166.160004,163.539993,81.3387,3280400
EOG,20140128,163.380005,167.50,162.289993,82.608308,3292600
EOG,20140127,165.169998,165.490005,161.259995,80.078981,3806000
EOG,20140124,168.050003,169.039993,165.119995,81.773431,5645400
EOG,20140123,169.779999,171.740005,168.229996,83.571626,4482800
EOG,20140122,170.199997,172.300003,169.25,84.831352,3588600
EOG,20140121,169.160004,170.550003,168.139999,83.601265,3195000
EOG,20140117,170.960007,171.880005,168.919998,83.467888,3325800
EOG,20140116,170.100006,171.169998,168.699997,84.031059,3342400
EOG,20140115,169.460007,173.279999,169.399994,84.159498,4088800
EOG,20140114,164.059998,168.729996,163.630005,83.197173,3221800
EOG,20140113,167.410004,168.270004,162.970001,80.660795,2672600
EOG,20140110,167.460007,168.100006,165.990005,82.313877,2949800
EOG,20140109,167.410004,168.889999,165.479996,82.407636,3539400
EOG,20140108,166.020004,167.830002,165.050003,82.299074,2857800
EOG,20140107,165.070007,166.910004,163.710007,82.33362,3286800
EOG,20140106,164.770004,165.330002,162.339996,80.93713,3649200
EOG,20140103,165.75,166.649994,163.809998,81.203595,2693800
EOG,20140102,166.570007,167.960007,164.059998,81.430589,2943400
EOG,20131231,167.339996,168.850006,166.470001,82.822139,2109800
EOG,20131230,168.949997,170.50,166.199997,82.580349,2811400
EOG,20131227,168.139999,169.479996,167.679993,83.473509,1685200
EOG,20131226,168.460007,169.539993,167.669998,82.910966,1772200
EOG,20131224,167.820007,168.270004,166.229996,83.029391,978200
EOG,20131223,169.259995,169.839996,166.830002,82.713578,3028000
EOG,20131220,166.119995,169.320007,165.449997,83.157695,6265800
EOG,20131219,161.669998,165.910004,161.179993,81.58356,5073600
EOG,20131218,159.639999,162.380005,158.330002,79.940341,5965400
EOG,20131217,160.520004,160.520004,157.509995,78.78071,3471800
EOG,20131216,159.339996,161.970001,159.339996,78.825127,4120200
EOG,20131213,157.669998,159.350006,156.490005,78.469836,4488600
EOG,20131212,156.429993,159.320007,156.240005,78.144151,3813000
EOG,20131211,158.850006,159.139999,156.009995,77.107885,4240000
EOG,20131210,158.429993,161.940002,158.139999,78.612936,4554400
EOG,20131209,160.919998,161.25,156.309998,78.03559,8547400
EOG,20131206,166.949997,167.100006,159.889999,78.973159,7343200
EOG,20131205,165.339996,167.740005,164.160004,81.608235,4473800
EOG,20131204,165.600006,169.110001,165.50,82.471788,3751400
EOG,20131203,164.449997,166.729996,161.820007,81.657576,4163800
EOG,20131202,166.00,166.550003,163.130005,81.420718,3034400
EOG,20131129,166.50,167.110001,164.190002,81.420718,2248400
EOG,20131127,168.929993,169.690002,165.520004,82.126361,3360200
EOG,20131126,169.350006,171.479996,167.699997,83.493244,3180400
EOG,20131125,169.320007,169.369995,165.669998,83.488312,3777800
EOG,20131122,170.199997,170.410004,167.350006,83.962028,2536600
EOG,20131121,168.119995,169.960007,167.800003,83.547525,3079200
EOG,20131120,168.850006,169.759995,166.210007,82.368158,3010600
EOG,20131119,168.119995,169.470001,165.649994,82.846814,3115400
EOG,20131118,171.50,172.199997,167.470001,83.157695,3032000
EOG,20131115,170.279999,172.139999,167.880005,84.568988,4322400
EOG,20131114,169.490005,170.080002,167.949997,83.72517,3690600
EOG,20131113,166.440002,169.860001,165.789993,83.621548,4713200
EOG,20131112,170.699997,171.080002,165.800003,82.456985,4579200
EOG,20131111,171.210007,171.639999,169.630005,84.603526,3293200
EOG,20131108,171.119995,173.259995,170.559998,84.361736,5577800
EOG,20131107,179.309998,180.240005,165.050003,84.667678,9039000
EOG,20131106,181.330002,182.899994,175.940002,87.164579,4666800
EOG,20131105,183.339996,183.339996,179.520004,88.689365,3686200
EOG,20131104,180.470001,183.600006,179.729996,90.529973,2737200
EOG,20131101,178.610001,180.029999,175.399994,88.319271,3633200
EOG,20131031,179.979996,180.910004,176.710007,88.033064,3954400
EOG,20131030,186.320007,186.850006,178.889999,88.985444,3915000
EOG,20131029,182.869995,185.770004,182.309998,91.329374,2861800
EOG,20131028,183.830002,183.899994,181.880005,90.016771,1835000
EOG,20131025,182.350006,184.089996,181.289993,90.520101,2583800
EOG,20131024,178.059998,182.570007,176.110001,89.528244,4082000
EOG,20131023,183.119995,183.119995,176.509995,88.052807,5441400
EOG,20131022,186.789993,188.300003,183.580002,91.363912,3930000
EOG,20131021,183.00,185.50,182.649994,90.954347,2405000
EOG,20131018,182.660004,184.169998,180.839996,90.692807,4302000
EOG,20131017,181.679993,182.399994,179.300003,89.508509,4643400
EOG,20131016,182.479996,185.869995,181.470001,89.952619,4577200
EOG,20131015,180.25,181.979996,179.00,88.807798,3037000
EOG,20131014,177.360001,181.080002,176.330002,89.252893,2461200
EOG,20131011,174.320007,180.949997,174.25,88.232498,3899800
EOG,20131010,173.389999,174.940002,172.940002,86.196626,3032600
EOG,20131009,172.330002,173.559998,169.600006,84.550187,3839600
EOG,20131008,172.339996,174.649994,170.410004,84.520611,3545000
EOG,20131007,172.210007,174.210007,171.25,85.195945,3423800
EOG,20131004,171.919998,174.860001,170.539993,86.063529,3206400
EOG,20131003,171.949997,172.229996,169.990005,84.688211,2515400
EOG,20131002,171.869995,172.360001,169.179993,84.96426,2717600
EOG,20131001,168.610001,172.830002,168.550003,84.860738,2809200
EOG,20130930,167.559998,170.339996,167.119995,83.445984,2593800
EOG,20130927,171.229996,171.660004,169.800003,84.160755,1660600
EOG,20130926,171.720001,172.169998,169.820007,84.831162,1933600
EOG,20130925,172.089996,173.289993,170.729996,84.481175,3507400
EOG,20130924,169.410004,173.919998,168.619995,84.831162,4233600
EOG,20130923,168.570007,169.710007,168.110001,83.238947,2652000
EOG,20130920,170.50,171.529999,168.529999,83.243874,3677400
EOG,20130919,172.100006,172.809998,169.350006,84.160755,2122000
EOG,20130918,167.259995,172.360001,167.199997,84.683277,2870200
EOG,20130917,166.509995,168.360001,165.789993,82.701637,2069800
EOG,20130916,167.539993,167.990005,165.080002,81.730532,2466600
EOG,20130913,167.75,168.139999,166.100006,82.046018,2089400
EOG,20130912,167.539993,168.770004,167.00,82.810086,3130200
EOG,20130911,163.449997,167.369995,162.839996,82.396005,3613400
EOG,20130910,163.50,164.720001,160.929993,80.596754,3420600
EOG,20130909,163.100006,164.00,162.169998,80.670693,3747000
EOG,20130906,162.570007,164.330002,160.580002,79.719309,3772400
EOG,20130905,161.220001,162.619995,160.949997,79.576351,1967800
EOG,20130904,157.490005,161.009995,157.490005,79.132702,2611800
EOG,20130903,159.460007,160.490005,157.050003,78.097511,2207600
EOG,20130830,157.50,158.320007,156.289993,77.41725,2166200
EOG,20130829,158.729996,159.300003,156.679993,77.436965,1990800
EOG,20130828,156.940002,161.320007,156.830002,78.605253,3517800
EOG,20130827,156.160004,158.559998,156.00,77.042606,2267600
EOG,20130826,157.259995,159.610001,156.830002,77.446826,2204200
EOG,20130823,154.399994,156.789993,153.539993,77.205279,2084200
EOG,20130822,152.729996,155.360001,152.449997,76.110937,1463000
EOG,20130821,154.369995,154.369995,151.389999,74.848996,2361200
EOG,20130820,152.699997,155.889999,152.160004,76.219386,2395400
EOG,20130819,155.520004,156.119995,152.539993,75.268003,2752800
EOG,20130816,155.529999,156.889999,154.309998,76.648255,2502000
EOG,20130815,155.539993,157.779999,154.289993,77.190491,2551400
EOG,20130814,158.119995,158.899994,156.119995,77.09683,2548200
EOG,20130813,159.00,159.149994,156.759995,78.003858,2282600
EOG,20130812,158.160004,160.449997,157.460007,78.260185,4004400
EOG,20130809,158.660004,159.970001,158.00,78.299621,3664400
EOG,20130808,157.860001,160.25,156.309998,78.171458,4722600
EOG,20130807,160.309998,161.470001,155.289993,77.008104,9410200
EOG,20130806,154.100006,154.910004,151.309998,75.529264,4948800
EOG,20130805,152.940002,155.039993,152.149994,76.002489,3574000
EOG,20130802,150.759995,153.210007,150.25,75.435603,2813200
EOG,20130801,147.570007,152.910004,147.570007,74.962379,3991600
EOG,20130731,144.619995,148.169998,144.619995,71.71879,3469400
EOG,20130730,145.050003,145.779999,141.550003,71.033594,3268400
EOG,20130729,145.320007,145.520004,143.869995,71.334292,1627400
EOG,20130726,146.240005,146.720001,144.240005,71.842026,2974400
EOG,20130725,144.070007,147.399994,144.00,72.645524,3925000
EOG,20130724,149.089996,149.139999,143.160004,71.018807,6075800
EOG,20130723,149.619995,149.979996,148.009995,73.271568,3264600
EOG,20130722,148.630005,150.050003,147.539993,73.690576,3240800
EOG,20130719,147.809998,148.699997,146.509995,73.286356,2742200
EOG,20130718,146.419998,148.270004,146.220001,72.463136,3070600
EOG,20130717,145.050003,146.419998,144.649994,71.88639,2746000
EOG,20130716,143.779999,145.539993,143.75,71.260346,3735400
EOG,20130715,144.630005,145.619995,142.589996,70.757538,3459200
EOG,20130712,143.100006,144.770004,141.910004,71.241617,3772200
EOG,20130711,144.00,146.789993,142.889999,70.67054,5601400
EOG,20130710,142.690002,143.679993,141.630005,70.040389,3534000
EOG,20130709,140.949997,142.470001,140.389999,70.015772,3547400
EOG,20130708,141.50,142.529999,139.009995,68.804696,3429400
EOG,20130705,139.059998,140.639999,138.630005,69.119771,2281000
EOG,20130703,138.00,138.50,136.809998,68.026851,1707400
EOG,20130702,135.240005,139.270004,135.240005,67.879165,4339200
EOG,20130701,133.789993,136.429993,133.240005,66.613935,3230400
EOG,20130628,130.429993,132.990005,130.020004,64.826861,3424400
EOG,20130627,133.160004,134.080002,130.720001,64.497017,3610800
EOG,20130626,131.190002,132.550003,129.529999,64.91056,2504600
EOG,20130625,129.020004,131.100006,128.220001,64.073634,3441000
EOG,20130624,128.889999,129.460007,124.529999,62.72472,3962200
EOG,20130621,132.240005,132.399994,128.570007,64.19671,4786600
EOG,20130620,133.720001,133.889999,129.789993,64.487177,4397600
EOG,20130619,134.970001,137.990005,134.779999,66.75178,3409000
EOG,20130618,133.50,135.960007,133.139999,66.471169,2800400
EOG,20130617,133.199997,134.339996,132.160004,65.639171,2379400
EOG,20130614,133.610001,133.610001,131.130005,64.856406,2687800
EOG,20130613,129.679993,133.50,129.350006,65.639171,3135000
EOG,20130612,131.259995,131.770004,129.479996,63.81764,2709400
EOG,20130611,129.289993,130.320007,128.240005,63.561639,2794600
EOG,20130610,132.330002,132.600006,131.149994,64.797324,1533600
EOG,20130607,131.100006,133.649994,130.199997,65.319168,2235600
EOG,20130606,128.910004,130.649994,127.519997,64.314866,2992600
EOG,20130605,131.660004,131.970001,128.490005,63.27118,2890800
EOG,20130604,131.470001,132.639999,130.330002,65.063174,3553000
EOG,20130603,130.149994,132.130005,129.720001,64.861326,2904200
EOG,20130531,131.729996,132.600006,129.089996,63.556718,3438200
EOG,20130530,132.330002,133.940002,130.899994,65.324095,2435200
EOG,20130529,130.339996,133.419998,130.119995,65.393018,3149600
EOG,20130528,132.460007,133.25,129.509995,64.551171,3505800
EOG,20130524,129.729996,130.949997,128.630005,64.408406,2411000
EOG,20130523,128.970001,131.639999,128.229996,64.689016,3610600
EOG,20130522,134.160004,135.529999,129.820007,64.457632,4040000
EOG,20130521,135.779999,136.270004,134.050003,66.10686,2490200
EOG,20130520,135.369995,137.149994,134.869995,66.761628,4074400
EOG,20130517,133.800003,135.889999,133.509995,66.584398,5239200
EOG,20130516,134.509995,134.919998,132.740005,65.585017,3958800
EOG,20130515,136.490005,137.639999,134.050003,66.308708,4216200
EOG,20130514,134.00,136.970001,133.820007,67.283472,3957800
EOG,20130513,132.820007,134.539993,132.309998,65.801633,3208800
EOG,20130510,135.490005,135.490005,131.699997,65.762248,4896400
EOG,20130509,138.809998,139.00,135.529999,66.993013,5611400
EOG,20130508,136.039993,138.779999,135.919998,67.889006,6426200
EOG,20130507,133.789993,137.960007,132.960007,66.801014,10445000
EOG,20130506,124.599998,126.730003,123.260002,62.050259,5604800
EOG,20130503,121.400002,124.199997,121.400002,61.03611,4339000
EOG,20130502,119.25,120.260002,118.00,58.914268,3080400
EOG,20130501,120.389999,120.389999,117.760002,58.500733,3678600
EOG,20130430,121.800003,122.739998,120.589996,59.647807,3567800
EOG,20130429,120.50,122.720001,119.879997,60.026881,2326800
EOG,20130426,121.699997,121.910004,119.00,58.643502,4676200
EOG,20130425,120.160004,123.529999,119.360001,59.99242,4523000
EOG,20130424,117.040001,120.449997,117.00,59.042269,3838000
EOG,20130423,116.900002,117.379997,115.269997,57.599812,4435600
EOG,20130422,113.949997,116.82,113.510002,57.304429,4329000
EOG,20130419,116.160004,116.279999,112.93,55.847203,4954200
EOG,20130418,115.389999,115.959999,112.050003,56.767813,6903800
EOG,20130417,117.410004,117.860001,113.459999,56.526584,6131200
EOG,20130416,117.830002,119.639999,115.82,58.658271,4537000
EOG,20130415,122.360001,122.370003,116.129997,57.201045,5775400
EOG,20130412,127.300003,127.800003,124.010002,61.109953,4050600
EOG,20130411,129.009995,129.660004,127.720001,63.050623,2956800
EOG,20130410,128.559998,130.199997,128.479996,63.227593,2723000
EOG,20130409,127.07,129.210007,126.199997,63.04571,2289400
EOG,20130408,124.889999,127.220001,124.529999,62.377154,2525200
EOG,20130405,121.00,124.870003,120.760002,61.325164,4256400
EOG,20130404,126.07,126.07,122.629997,60.396069,4745800
EOG,20130403,129.050003,129.419998,125.75,61.988802,3335400
EOG,20130402,128.800003,130.050003,128.039993,63.438979,3105200
EOG,20130401,128.070007,128.830002,126.629997,63.173519,2257400
EOG,20130328,128.169998,129.149994,127.43,62.957228,3039400
EOG,20130327,127.889999,128.669998,126.190002,63.021129,3713800
EOG,20130326,124.480003,129.389999,124.370003,63.365236,4865200
EOG,20130325,125.769997,126.800003,123.029999,60.917148,3087000
EOG,20130322,124.440002,125.07,123.620003,61.43823,2790400
EOG,20130321,125.269997,126.849998,123.849998,60.907318,4030200
EOG,20130320,128.360001,128.800003,126.169998,62.057624,3784800
EOG,20130319,129.100006,129.520004,126.709999,62.563955,2513600
EOG,20130318,128.910004,130.419998,128.320007,63.379983,2773400
EOG,20130315,131.470001,132.839996,130.410004,64.112447,4972200
EOG,20130314,130.490005,132.009995,130.270004,64.805583,2847800
EOG,20130313,130.00,131.179993,129.490005,63.846995,2634800
EOG,20130312,129.50,130.399994,129.119995,63.94531,2585600
EOG,20130311,128.330002,129.369995,127.410004,63.247261,2084000
EOG,20130308,128.190002,128.919998,127.489998,63.257087,2449200
EOG,20130307,125.75,128.229996,125.370003,62.706515,2442600
EOG,20130306,125.18,125.949997,124.32,61.74301,4088800
EOG,20130305,123.080002,125.050003,122.419998,61.300583,3915600
EOG,20130304,122.779999,122.879997,121.00,59.870074,3752200
EOG,20130301,124.639999,125.349998,122.230003,60.464891,5727000
EOG,20130228,126.440002,127.959999,125.599998,61.797085,4326200
EOG,20130227,123.110001,127.129997,122.769997,62.391901,4719000
EOG,20130226,122.370003,123.849998,120.760002,60.710683,3928600
EOG,20130225,125.669998,126.959999,121.650002,59.86024,5190600
EOG,20130222,125.00,125.839996,123.690002,61.615197,4546200
EOG,20130221,126.489998,127.059998,123.550003,60.976139,5828200
EOG,20130220,131.429993,131.740005,127.32,62.622947,4943600
EOG,20130219,130.559998,131.580002,130.039993,64.594198,3935400
EOG,20130215,133.259995,134.00,127.779999,63.5078,6343200
EOG,20130214,138.070007,138.199997,133.080002,65.54296,5912000
EOG,20130213,134.100006,134.399994,132.699997,65.67569,3178000
EOG,20130212,133.50,134.690002,132.800003,65.921482,3462400
EOG,20130211,133.289993,133.679993,132.119995,65.547873,3396200
EOG,20130208,130.139999,133.389999,130.139999,65.518379,3602200
EOG,20130207,129.720001,130.110001,128.050003,63.79292,2315800
EOG,20130206,127.730003,129.919998,127.529999,63.743759,1729400
EOG,20130205,128.649994,129.270004,127.900002,63.325916,2044400
EOG,20130204,127.669998,127.790001,126.599998,62.573789,2681200
EOG,20130201,126.639999,128.789993,124.989998,63.217767,3367000
EOG,20130131,125.50,125.970001,124.50,61.43823,3528000
EOG,20130130,127.169998,129.429993,126.169998,62.096951,3195000
EOG,20130129,124.660004,127.190002,124.010002,62.401735,2821400
EOG,20130128,125.809998,125.809998,123.550003,61.054791,2718400
EOG,20130125,125.370003,126.540001,124.540001,61.580786,2365000
EOG,20130124,124.900002,126.400002,124.790001,61.443143,2724000
EOG,20130123,126.160004,126.589996,124.50,61.325164,2282000
EOG,20130122,126.949997,127.339996,124.900002,62.185437,3831400
EOG,20130118,126.339996,127.080002,125.220001,62.327997,3532800
EOG,20130117,126.00,126.550003,124.889999,61.954391,3449000
EOG,20130116,124.830002,125.50,124.389999,61.629948,3009800
EOG,20130115,124.010002,125.50,123.75,61.497218,3347000
EOG,20130114,125.650002,126.279999,124.230003,61.197354,2046800
EOG,20130111,126.059998,126.449997,125.00,61.673538,2264600
EOG,20130110,125.400002,126.129997,124.559998,61.904268,2277000
EOG,20130109,124.360001,125.169998,123.690002,61.182624,1755200
EOG,20130108,125.75,125.989998,123.18,60.942077,3122400
EOG,20130107,125.209999,126.099998,124.150002,61.850267,2857800
EOG,20130104,124.230003,126.25,123.949997,61.756996,2518600
EOG,20130103,123.489998,125.489998,122.470001,60.961714,2928400
EOG,20130102,123.400002,123.68,121.440002,60.716257,3665200
