PPG,20151030,104.580002,104.779999,103.68,104.260002,1511800
PPG,20151029,104.400002,104.669998,103.580002,104.279999,1099800
PPG,20151028,103.470001,104.349998,102.709999,104.330002,1007700
PPG,20151027,103.470001,104.190002,102.629997,102.93,1302300
PPG,20151026,104.099998,104.480003,103.419998,103.93,1279200
PPG,20151023,104.50,104.879997,103.730003,103.989998,1542800
PPG,20151022,101.599998,104.00,101.339996,103.620003,2286400
PPG,20151021,101.720001,101.849998,100.00,100.639999,1977600
PPG,20151020,101.169998,102.400002,100.75,101.379997,1327300
PPG,20151019,100.029999,101.279999,99.400002,101.18,1295800
PPG,20151016,100.199997,103.260002,99.989998,100.739998,3795600
PPG,20151015,97.809998,99.379997,96.309998,99.260002,3247600
PPG,20151014,96.849998,98.230003,96.760002,97.32,2241800
PPG,20151013,96.540001,98.050003,95.870003,97.18,2223100
PPG,20151012,96.660004,97.709999,96.010002,97.339996,1815900
PPG,20151009,95.699997,96.459999,95.010002,95.970001,1692900
PPG,20151008,94.169998,95.989998,93.790001,95.769997,1292400
PPG,20151007,92.900002,94.339996,92.480003,94.309998,2207500
PPG,20151006,94.610001,95.199997,93.25,93.400002,2346900
PPG,20151005,93.440002,94.849998,93.199997,94.589996,1973100
PPG,20151002,89.050003,92.720001,88.349998,92.660004,2318100
PPG,20151001,82.93,90.18,82.93,90.129997,3580000
PPG,20150930,87.089996,88.220001,86.949997,87.690002,2920700
PPG,20150929,84.690002,86.32,84.50,85.949997,2483700
PPG,20150928,87.50,87.830002,84.400002,84.510002,2321800
PPG,20150925,88.660004,89.230003,87.629997,88.339996,1504800
PPG,20150924,89.050003,89.459999,87.190002,88.110001,3703400
PPG,20150923,91.75,92.169998,89.800003,89.940002,1698800
PPG,20150922,92.230003,92.57,90.540001,91.620003,1904700
PPG,20150921,93.550003,94.330002,93.019997,93.449997,1171700
PPG,20150918,93.110001,93.989998,92.730003,93.190002,2200800
PPG,20150917,95.07,96.040001,94.110001,94.459999,2157600
PPG,20150916,94.419998,95.360001,94.32,95.07,1827500
PPG,20150915,94.160004,95.330002,93.669998,94.279999,2384400
PPG,20150914,96.309998,96.769997,93.739998,94.160004,2396200
PPG,20150911,96.300003,96.779999,95.419998,96.720001,1468600
PPG,20150910,96.089996,97.389999,95.57,96.639999,2109800
PPG,20150909,97.360001,97.879997,95.970001,96.099998,2921400
PPG,20150908,94.940002,96.410004,94.519997,96.400002,1704600
PPG,20150904,92.669998,93.839996,92.290001,93.309998,2149400
PPG,20150903,94.059998,94.889999,93.559998,93.980003,1471700
PPG,20150902,92.849998,93.529999,91.620003,93.529999,2497700
PPG,20150901,93.269997,93.629997,90.809998,91.349998,2433800
PPG,20150831,95.559998,96.660004,94.760002,95.290001,1707400
PPG,20150828,94.849998,96.379997,94.849998,96.110001,1709800
PPG,20150827,94.669998,95.849998,93.269997,95.190002,4581600
PPG,20150826,92.68,93.220001,91.00,93.099998,3970000
PPG,20150825,94.870003,94.870003,91.019997,91.050003,2960900
PPG,20150824,92.029999,95.949997,91.00,92.260002,3701300
PPG,20150821,98.559998,99.309998,97.120003,97.209999,2540300
PPG,20150820,101.910004,102.400002,99.870003,99.870003,2300000
PPG,20150819,103.779999,104.089996,102.150002,102.50,2174000
PPG,20150818,104.419998,105.709999,104.360001,104.57,2426300
PPG,20150817,104.209999,105.089996,103.849998,104.260002,1578000
PPG,20150814,103.639999,104.800003,103.389999,104.699997,1344700
PPG,20150813,104.260002,104.400002,103.459999,103.519997,1222900
PPG,20150812,103.639999,104.209999,102.25,104.029999,3558600
PPG,20150811,105.360001,105.410004,103.800003,104.410004,1476900
PPG,20150810,104.720001,106.610001,104.400002,106.610001,1195400
PPG,20150807,104.860001,105.150002,103.739998,103.919998,1581300
PPG,20150806,106.239998,106.540001,104.910004,105.209999,1507300
PPG,20150805,107.690002,108.089996,106.260002,106.229995,1207700
PPG,20150804,108.00,108.459999,106.199997,106.180169,1598100
PPG,20150803,107.309998,108.709999,107.07,107.505679,1535400
PPG,20150731,109.00,109.370003,108.18,108.013951,1362400
PPG,20150730,108.50,108.760002,107.57,108.153477,1233500
PPG,20150729,107.080002,108.989998,106.839996,108.203311,2653500
PPG,20150728,103.010002,107.190002,102.639999,106.558883,3080800
PPG,20150727,102.690002,103.209999,101.610001,102.044184,2766000
PPG,20150724,105.540001,105.599998,102.190002,102.90128,3111900
PPG,20150723,108.099998,108.190002,105.099998,105.273239,3033200
PPG,20150722,108.120003,108.809998,107.290001,107.724929,2440900
PPG,20150721,111.120003,111.550003,107.860001,107.844527,3796700
PPG,20150720,111.949997,112.00,110.620003,110.47561,2146900
PPG,20150717,112.459999,113.540001,111.660004,111.422406,3351900
PPG,20150716,117.089996,118.269997,111.540001,111.442335,5355400
PPG,20150715,117.32,117.989998,116.790001,116.584911,1509800
PPG,20150714,116.50,117.889999,116.459999,117.21278,1185100
PPG,20150713,116.190002,116.610001,115.959999,116.136426,1474700
PPG,20150710,114.120003,115.029999,113.540001,114.511934,1364100
PPG,20150709,114.660004,114.849998,112.629997,112.259565,1718900
PPG,20150708,113.910004,114.489998,113.019997,112.71801,1537000
PPG,20150707,115.330002,115.330002,113.360001,114.67139,1640800
PPG,20150706,114.809998,115.980003,114.209999,114.711255,1425900
PPG,20150702,117.150002,117.32,115.239998,115.518525,943200
PPG,20150701,115.779999,116.559998,115.230003,116.106529,1256400
PPG,20150630,115.690002,116.00,114.400002,114.332542,1114600
PPG,20150629,117.139999,117.309998,114.879997,114.591666,996800
PPG,20150626,118.139999,118.230003,117.599998,117.611431,751300
PPG,20150625,118.099998,118.559998,117.699997,117.342338,1207800
PPG,20150624,118.279999,118.489998,117.900002,117.571565,1918300
PPG,20150623,118.480003,118.690002,117.760002,117.890484,1174900
PPG,20150622,118.00,118.639999,117.760002,117.770886,901000
PPG,20150619,117.160004,118.019997,116.82,116.90383,2210000
PPG,20150618,117.120003,118.239998,116.790001,117.412102,1668900
PPG,20150617,116.269997,116.830002,115.139999,116.275953,2525400
PPG,20150616,115.220001,116.190002,115.00,115.608217,1286900
PPG,20150615,115.639999,116.139999,114.949997,115.040143,990500
PPG,20150612,233.649994,233.940002,232.190002,116.231106,1160800
PPG,20150611,232.809998,234.949997,230.960007,116.599859,1806200
PPG,20150610,230.429993,232.990005,230.009995,115.548422,1979400
PPG,20150609,228.479996,230.289993,227.600006,114.237861,1070600
PPG,20150608,228.410004,228.570007,227.210007,113.664806,1051000
PPG,20150605,227.919998,229.160004,226.470001,113.928911,1045800
PPG,20150604,228.929993,230.25,228.240005,113.998674,1406600
PPG,20150603,229.330002,230.100006,228.020004,114.606614,1114000
PPG,20150602,228.669998,229.910004,227.009995,113.73955,768600
PPG,20150601,228.169998,230.259995,227.279999,114.128232,903400
PPG,20150529,229.270004,230.320007,228.039993,114.058469,1199800
PPG,20150528,228.289993,230.130005,227.350006,114.521902,1230800
PPG,20150527,227.520004,229.649994,227.220001,114.183047,1433800
PPG,20150526,228.419998,229.179993,225.75,112.977134,1470800
PPG,20150522,228.639999,230.320007,228.639999,114.207964,742800
PPG,20150521,228.320007,230.229996,228.240005,114.227893,664400
PPG,20150520,230.00,230.779999,228.229996,114.078398,1284800
PPG,20150519,230.880005,231.910004,229.389999,114.606614,1481600
PPG,20150518,231.699997,231.699997,229.50,115.075021,1842600
PPG,20150515,228.679993,231.779999,227.839996,115.458722,1263000
PPG,20150514,227.229996,229.00,226.00,114.013623,1527400
PPG,20150513,224.509995,225.800003,222.50,112.31936,1544600
PPG,20150512,226.509995,227.320007,224.419998,111.865902,1247600
PPG,20150511,228.529999,230.179993,227.210007,113.281104,1722000
PPG,20150508,227.779999,230.520004,226.800003,114.1382,1585200
PPG,20150507,221.50,225.759995,220.679993,112.075192,2165000
PPG,20150506,222.660004,222.800003,220.660004,110.291241,1411400
PPG,20150505,226.50,226.979996,221.410004,110.057794,1420800
PPG,20150504,224.880005,226.00,224.570007,111.771392,1090800
PPG,20150501,221.729996,224.809998,221.160004,111.53298,1515600
PPG,20150430,220.479996,223.169998,220.020004,110.047858,2217800
PPG,20150429,219.699997,222.330002,219.130005,110.350842,1753400
PPG,20150428,220.529999,221.339996,218.600006,109.6505,1957200
PPG,20150427,223.460007,223.960007,220.380005,109.695208,2169400
PPG,20150424,225.869995,226.809998,222.50,110.917075,1729600
PPG,20150423,226.080002,226.860001,225.369995,112.193586,854600
PPG,20150422,227.160004,228.399994,225.490005,112.451862,872200
PPG,20150421,228.210007,228.279999,225.570007,112.774719,1181400
PPG,20150420,228.039993,228.940002,225.470001,113.087632,1912000
PPG,20150417,225.130005,228.009995,224.350006,112.556172,2211800
PPG,20150416,233.029999,233.110001,226.570007,112.625709,2492600
PPG,20150415,228.740005,229.089996,226.520004,112.883993,1849800
PPG,20150414,229.410004,229.720001,226.919998,113.226714,1281200
PPG,20150413,229.350006,230.75,228.419998,114.036322,1344600
PPG,20150410,229.00,229.899994,227.029999,113.991621,1408600
PPG,20150409,226.369995,228.520004,225.419998,113.415453,1177200
PPG,20150408,224.320007,226.660004,224.320007,112.31776,1620000
PPG,20150407,224.039993,226.330002,223.410004,111.706819,1187400
PPG,20150406,222.660004,224.970001,222.00,111.36907,1100600
PPG,20150402,223.419998,225.270004,222.929993,111.051185,1421000
PPG,20150401,225.350006,225.960007,222.350006,111.488279,1623600
PPG,20150331,222.929993,226.399994,222.160004,112.024704,1837000
PPG,20150330,224.300003,226.050003,223.149994,111.50318,1265200
PPG,20150327,222.020004,224.00,220.929993,110.743236,1222800
PPG,20150326,220.589996,222.50,220.050003,109.91872,1125200
PPG,20150325,225.789993,227.029999,222.279999,110.494888,1306800
PPG,20150324,226.389999,227.869995,225.490005,111.999875,1172800
PPG,20150323,228.729996,229.820007,226.419998,112.466763,1290200
PPG,20150320,227.339996,230.25,225.779999,113.773074,1555000
PPG,20150319,228.169998,228.970001,225.850006,112.337625,1015800
PPG,20150318,225.910004,232.160004,223.00,114.061159,2110200
PPG,20150317,228.470001,229.539993,226.130005,112.879021,1116200
PPG,20150316,228.740005,230.25,228.029999,114.279706,1091200
PPG,20150313,228.710007,229.490005,226.339996,113.201877,1181600
PPG,20150312,225.389999,229.830002,225.110001,114.090959,986400
PPG,20150311,227.820007,228.149994,225.009995,111.845893,1594200
PPG,20150310,229.929993,230.119995,227.639999,113.082668,1606800
PPG,20150309,232.440002,233.720001,231.520004,115.377399,1418600
PPG,20150306,233.369995,234.770004,231.649994,115.21846,1090000
PPG,20150305,235.830002,236.270004,234.119995,116.946958,974400
PPG,20150304,233.119995,237.899994,232.210007,116.892322,1687000
PPG,20150303,236.889999,236.979996,233.830002,116.494964,1237600
PPG,20150302,235.380005,237.75,235.380005,118.064523,1454800
PPG,20150227,235.869995,236.960007,234.100006,116.912194,1394800
PPG,20150226,235.240005,236.809998,234.660004,117.140669,967600
PPG,20150225,236.00,237.410004,235.169998,117.056232,1086200
PPG,20150224,236.850006,237.199997,235.509995,117.6026,994800
PPG,20150223,235.210007,237.100006,234.820007,117.463526,1347600
PPG,20150220,234.630005,237.199997,232.100006,117.538027,1347400
PPG,20150219,234.479996,237.139999,234.020004,116.971795,948800
PPG,20150218,234.300003,236.380005,233.229996,117.339352,1144000
PPG,20150217,234.300003,236.979996,233.509995,116.812852,1739200
PPG,20150213,233.690002,236.850006,233.100006,117.268513,1251200
PPG,20150212,230.259995,233.589996,229.119995,115.416146,1624800
PPG,20150211,227.919998,229.199997,226.910004,113.033829,776000
PPG,20150210,229.179993,229.449997,225.899994,113.043736,1005000
PPG,20150209,230.360001,230.860001,226.179993,112.340433,1741800
PPG,20150206,230.179993,232.00,229.110001,114.341379,1136800
PPG,20150205,228.960007,231.229996,227.830002,114.098687,1352800
PPG,20150204,226.600006,228.940002,225.009995,112.652457,1100000
PPG,20150203,226.429993,227.75,223.839996,112.38005,1328000
PPG,20150202,221.25,224.240005,219.880005,110.809999,1589600
PPG,20150130,222.740005,226.059998,222.740005,110.389011,2708400
PPG,20150129,222.00,226.070007,220.309998,111.790667,1528800
PPG,20150128,226.130005,227.710007,221.240005,109.824387,1411200
PPG,20150127,226.00,228.029999,224.259995,111.914488,1246400
PPG,20150126,227.100006,228.149994,225.210007,112.835718,1002200
PPG,20150123,231.00,231.00,227.770004,112.83076,952200
PPG,20150122,228.710007,231.960007,226.309998,114.584072,1175400
PPG,20150121,227.470001,229.619995,226.210007,112.939723,1469000
PPG,20150120,231.089996,232.00,226.160004,113.004113,2082000
PPG,20150116,226.070007,230.899994,225.059998,114.103645,1886400
PPG,20150115,226.970001,233.979996,224.770004,112.033352,3105000
PPG,20150114,224.320007,227.039993,222.529999,112.414723,2555800
PPG,20150113,227.410004,230.240005,224.470001,112.424631,1656400
PPG,20150112,227.00,228.050003,224.830002,112.058118,1438800
PPG,20150109,230.229996,230.770004,225.75,112.414723,1599000
PPG,20150108,226.240005,230.690002,224.929993,113.856003,2075800
PPG,20150107,222.979996,224.699997,221.389999,110.904104,2366400
PPG,20150106,224.710007,225.300003,219.809998,110.413769,1710600
PPG,20150105,227.059998,227.75,222.589996,110.686177,1931800
PPG,20150102,231.149994,232.339996,227.589996,113.618261,888600
PPG,20141231,232.25,233.669998,231.020004,114.485009,1267200
PPG,20141230,231.529999,232.610001,231.130005,114.737609,843200
PPG,20141229,230.910004,233.160004,230.610001,115.133838,868600
PPG,20141226,231.380005,232.789993,230.589996,114.702935,605000
PPG,20141224,231.50,231.839996,230.380005,114.470151,541600
PPG,20141223,230.179993,232.160004,230.00,114.445393,1018800
PPG,20141222,228.639999,230.029999,227.330002,113.717324,1643600
PPG,20141219,228.080002,229.600006,227.009995,112.875334,2125800
PPG,20141218,224.429993,227.100006,222.910004,112.434531,1510200
PPG,20141217,217.089996,223.039993,216.690002,110.08193,1943000
PPG,20141216,216.289993,221.330002,216.039993,107.308341,1945000
PPG,20141215,221.020004,222.470001,216.229996,108.026502,2577400
PPG,20141212,221.639999,222.410004,219.759995,108.873442,2742000
PPG,20141211,220.860001,224.309998,220.470001,110.250332,1498800
PPG,20141210,225.610001,225.610001,220.479996,109.383584,1528000
PPG,20141209,221.009995,225.789993,221.009995,111.78076,1781200
PPG,20141208,222.399994,223.949997,221.669998,110.369196,1805200
PPG,20141205,223.899994,225.449997,222.449997,110.374153,1527800
PPG,20141204,223.110001,225.169998,222.460007,110.800098,2052800
PPG,20141203,219.600006,223.630005,219.130005,110.577214,1591600
PPG,20141202,221.210007,222.240005,217.949997,108.531694,1815200
PPG,20141201,217.460007,220.779999,216.789993,108.8982,3195800
PPG,20141128,218.300003,219.539993,216.479996,108.378157,1286400
PPG,20141126,215.149994,217.130005,214.550003,107.45197,909200
PPG,20141125,215.179993,217.440002,215.179993,106.684278,1364000
PPG,20141124,215.600006,216.539993,214.449997,106.768483,2368000
PPG,20141121,215.039993,217.729996,213.699997,106.65952,2580800
PPG,20141120,209.839996,212.880005,209.610001,105.327203,1405800
PPG,20141119,208.690002,211.080002,208.020004,104.336634,2718600
PPG,20141118,204.949997,208.75,204.350006,103.266818,1803000
PPG,20141117,204.00,206.369995,203.410004,101.696767,1093200
PPG,20141114,205.110001,206.350006,203.470001,100.988506,1606400
PPG,20141113,204.229996,206.990005,203.009995,101.647235,1980000
PPG,20141112,205.240005,205.589996,203.160004,100.988506,2076600
PPG,20141111,206.25,207.009995,204.710007,101.662093,1409600
PPG,20141110,206.570007,207.330002,205.339996,102.162335,1232000
PPG,20141107,203.059998,207.490005,203.059998,102.47436,1819400
PPG,20141106,205.00,206.259995,203.160004,102.07318,1990200
PPG,20141105,200.419998,205.460007,199.649994,101.3253,2963400
PPG,20141104,200.25,200.789993,197.270004,97.978233,1712600
PPG,20141103,204.050003,204.779999,199.880005,98.916199,2409200
PPG,20141031,194.789993,204.50,193.550003,100.555179,5398200
PPG,20141030,191.339996,193.440002,190.779999,94.956989,1368200
PPG,20141029,195.009995,195.429993,190.779999,94.808887,3746800
PPG,20141028,194.770004,196.860001,193.960007,96.457736,2245800
PPG,20141027,193.160004,193.839996,191.199997,95.080406,2100200
PPG,20141024,194.860001,196.110001,192.619995,96.684826,1615000
PPG,20141023,195.970001,196.570007,194.110001,96.215836,1712000
PPG,20141022,197.259995,198.50,193.300003,95.628378,2937400
PPG,20141021,191.949997,196.279999,191.949997,96.778617,2398800
PPG,20141020,187.779999,191.270004,186.770004,94.379391,2413200
PPG,20141017,184.639999,188.369995,183.649994,92.439281,3454600
PPG,20141016,173.899994,183.50,171.559998,89.763603,4098600
PPG,20141015,175.369995,181.139999,173.009995,89.107024,3388200
PPG,20141014,177.119995,179.960007,175.419998,87.665515,2546000
PPG,20141013,183.289993,183.990005,176.179993,87.176781,2501000
PPG,20141010,185.779999,187.410004,183.460007,90.612712,2004000
PPG,20141009,189.990005,190.259995,185.610001,91.837006,2205000
PPG,20141008,186.449997,189.759995,185.080002,93.564843,2850200
PPG,20141007,190.389999,190.389999,186.330002,92.029536,2348000
PPG,20141006,193.539993,193.539993,190.559998,94.423827,939400
PPG,20141003,192.029999,193.660004,190.729996,94.710155,1442600
PPG,20141002,190.869995,191.899994,187.889999,94.374457,1724800
PPG,20141001,196.50,196.50,189.669998,94.374457,3029000
PPG,20140930,199.080002,199.380005,196.380005,97.12419,1598800
PPG,20140929,197.279999,199.889999,196.729996,98.466967,1099400
PPG,20140926,197.119995,198.699997,197.00,97.968358,766800
PPG,20140925,199.389999,199.619995,197.410004,97.454947,1002600
PPG,20140924,198.699997,200.830002,198.479996,99.000122,1175600
PPG,20140923,199.240005,199.929993,198.089996,97.884435,1344200
PPG,20140922,202.960007,203.460007,199.520004,98.575567,1357000
PPG,20140919,203.960007,205.160004,202.779999,100.120749,1459000
PPG,20140918,202.210007,204.039993,201.889999,100.293536,1057600
PPG,20140917,201.460007,202.899994,200.830002,99.636957,1358600
PPG,20140916,199.380005,201.869995,198.529999,98.990254,1623600
PPG,20140915,199.759995,200.389999,198.479996,98.590384,992600
PPG,20140912,201.320007,201.779999,198.949997,98.575567,949800
PPG,20140911,200.990005,202.130005,200.449997,99.434552,900800
PPG,20140910,201.179993,202.649994,200.119995,99.94797,804200
PPG,20140909,204.119995,204.289993,201.110001,99.454303,836800
PPG,20140908,203.710007,205.369995,203.229996,100.668721,656000
PPG,20140905,203.75,204.009995,202.949997,100.688472,1059200
PPG,20140904,203.830002,205.009995,203.220001,100.520619,799000
PPG,20140903,205.729996,206.119995,203.300003,100.476191,1174400
PPG,20140902,206.389999,206.539993,204.570007,101.295681,858000
PPG,20140829,205.940002,206.199997,205.210007,101.626438,777000
PPG,20140828,204.690002,206.119995,204.360001,101.419098,758000
PPG,20140827,206.110001,206.649994,204.570007,101.320366,859000
PPG,20140826,206.850006,206.850006,205.550003,101.922641,871600
PPG,20140825,205.110001,206.360001,204.919998,101.809092,921000
PPG,20140822,205.100006,205.449997,204.429993,100.979734,644800
PPG,20140821,204.699997,206.00,204.080002,101.241377,929000
PPG,20140820,204.00,204.740005,203.190002,100.74771,939800
PPG,20140819,204.100006,205.289993,203.820007,101.019228,814600
PPG,20140818,202.300003,203.929993,202.220001,100.594674,974400
PPG,20140815,202.059998,203.770004,200.869995,99.854172,882200
PPG,20140814,201.550003,202.100006,200.919998,99.508606,867400
PPG,20140813,200.720001,202.110001,199.199997,99.725814,815600
PPG,20140812,199.350006,199.990005,198.470001,98.50152,557800
PPG,20140811,200.649994,201.110001,199.160004,98.328733,753800
PPG,20140808,197.789993,200.380005,197.020004,98.842152,763400
PPG,20140807,199.630005,200.00,197.00,97.410518,1035600
PPG,20140806,197.899994,199.809998,197.630005,97.854819,1186600
PPG,20140805,199.259995,200.699997,197.679993,97.520259,1059400
PPG,20140804,198.110001,200.990005,198.110001,98.705985,991000
PPG,20140801,196.979996,199.240005,196.50,97.608817,1409200
PPG,20140731,203.820007,203.820007,198.339996,97.594057,1586600
PPG,20140730,205.25,206.669998,203.600006,100.580522,1270400
PPG,20140729,208.50,208.570007,204.910004,100.856051,1429800
PPG,20140728,209.279999,209.639999,207.550003,102.666625,960000
PPG,20140725,210.00,210.50,208.529999,102.765024,629400
PPG,20140724,210.00,211.320007,209.419998,103.330834,914600
PPG,20140723,210.169998,211.660004,209.729996,103.473512,1485000
PPG,20140722,209.279999,211.089996,208.949997,103.375113,1163000
PPG,20140721,208.589996,209.809998,208.220001,102.705986,1377600
PPG,20140718,208.199997,210.50,207.960007,103.099591,1398000
PPG,20140717,205.020004,209.75,205.020004,102.189379,1891000
PPG,20140716,206.75,207.190002,204.949997,101.249649,2035800
PPG,20140715,208.720001,209.490005,205.380005,101.13649,1512400
PPG,20140714,208.490005,208.940002,207.910004,102.332065,631200
PPG,20140711,207.039993,208.199997,205.789993,102.351742,701000
PPG,20140710,205.649994,207.809998,205.00,102.036859,1188000
PPG,20140709,207.800003,208.100006,206.380005,102.248425,849400
PPG,20140708,207.899994,208.860001,206.690002,101.746578,960000
PPG,20140707,209.00,209.059998,207.309998,102.523946,1244000
PPG,20140703,208.690002,210.360001,208.380005,103.399714,577200
PPG,20140702,208.570007,209.479996,207.940002,102.489503,925600
PPG,20140701,210.220001,210.990005,208.830002,102.760107,1358600
PPG,20140630,211.929993,213.009995,208.600006,103.394789,2919000
PPG,20140627,201.610001,204.199997,201.600006,100.393565,1474000
PPG,20140626,204.729996,204.770004,201.910004,99.670318,955200
PPG,20140625,203.419998,205.850006,203.419998,100.600206,1229400
PPG,20140624,203.600006,205.490005,202.520004,99.891718,1050800
PPG,20140623,204.880005,205.070007,203.699997,100.551003,599800
PPG,20140620,203.830002,205.460007,203.279999,100.64941,1507000
PPG,20140619,203.410004,204.050003,202.979996,99.9852,850200
PPG,20140618,202.25,204.00,201.270004,100.16724,1122800
PPG,20140617,202.520004,204.119995,202.050003,99.635874,725600
PPG,20140616,203.75,204.25,201.809998,99.886801,861000
PPG,20140613,203.830002,204.75,203.210007,100.501807,504200
PPG,20140612,205.369995,205.710007,203.350006,100.162322,1284000
PPG,20140611,204.50,205.919998,204.289993,101.156174,763400
PPG,20140610,204.399994,205.889999,203.259995,101.254573,834400
PPG,20140609,204.630005,205.649994,204.360001,100.915089,840400
PPG,20140606,204.240005,205.800003,204.009995,100.826524,873600
PPG,20140605,203.580002,203.789993,201.100006,99.950756,986200
PPG,20140604,201.630005,204.75,200.070007,100.300083,1573600
PPG,20140603,201.410004,202.300003,200.929993,99.247193,832200
PPG,20140602,201.809998,203.050003,200.960007,99.547316,615400
PPG,20140530,200.929993,202.880005,200.139999,99.193072,1078200
PPG,20140529,200.429993,201.00,198.020004,98.892949,1044600
PPG,20140528,198.50,200.919998,197.949997,98.523946,1453000
PPG,20140527,199.50,199.710007,197.830002,97.475973,1357800
PPG,20140523,196.270004,199.029999,196.270004,97.840059,605200
PPG,20140522,197.009995,198.039993,196.300003,96.60513,691400
PPG,20140521,196.020004,197.889999,195.720001,97.00857,1186400
PPG,20140520,196.279999,197.240005,195.520004,96.280405,1540400
PPG,20140519,195.929993,198.470001,195.360001,96.452602,986400
PPG,20140516,194.830002,195.580002,192.960007,96.118043,1471400
PPG,20140515,196.300003,196.449997,193.00,95.758882,933800
PPG,20140514,197.589996,198.410004,196.330002,96.708447,866200
PPG,20140513,199.300003,199.50,197.559998,97.284092,950000
PPG,20140512,197.830002,199.649994,196.720001,98.110663,688800
PPG,20140509,196.25,196.839996,194.809998,96.737966,1005000
PPG,20140508,197.619995,198.880005,194.970001,96.570686,1200800
PPG,20140507,196.320007,198.899994,195.00,97.451376,1619800
PPG,20140506,194.729996,196.490005,193.009995,95.847942,1240600
PPG,20140505,194.860001,196.210007,193.589996,96.053886,888000
PPG,20140502,192.410004,195.570007,192.179993,95.705737,1516200
PPG,20140501,193.149994,194.210007,192.25,94.460262,789000
PPG,20140430,192.289993,194.00,192.259995,94.940799,1117400
PPG,20140429,192.350006,193.449997,191.179993,94.636787,987400
PPG,20140428,193.770004,194.570007,190.070007,93.886558,1583800
PPG,20140425,193.869995,194.300003,191.759995,94.626978,1429000
PPG,20140424,196.630005,196.940002,194.270004,95.377206,1536800
PPG,20140423,196.660004,198.119995,195.929993,96.25493,1542200
PPG,20140422,196.869995,197.990005,196.279999,96.28435,1778000
PPG,20140421,198.100006,199.419998,196.389999,96.372608,2523000
PPG,20140417,199.990005,200.00,196.479996,97.804425,3588200
PPG,20140416,190.00,191.929993,188.490005,93.965015,2034400
PPG,20140415,188.639999,189.160004,185.179993,92.444939,1875400
PPG,20140414,189.160004,189.699997,187.139999,92.459649,1304200
PPG,20140411,189.399994,190.770004,187.630005,92.096798,1373400
PPG,20140410,195.979996,196.190002,189.889999,93.146138,1847000
PPG,20140409,192.690002,195.970001,191.710007,95.955819,1432000
PPG,20140408,192.880005,194.130005,190.300003,94.391614,1858600
PPG,20140407,197.270004,197.740005,192.289993,94.671114,2327000
PPG,20140404,200.470001,201.589996,196.710007,96.970831,2836400
PPG,20140403,197.25,200.050003,196.160004,96.779596,1224600
PPG,20140402,196.169998,197.990005,195.460007,96.725658,1458200
PPG,20140401,195.080002,196.720001,193.380005,96.421646,1093600
PPG,20140331,192.720001,194.979996,192.009995,94.862349,1627800
PPG,20140328,190.029999,191.710007,189.410004,93.562928,1012800
PPG,20140327,190.429993,190.960007,188.029999,92.935285,1201400
PPG,20140326,193.410004,194.00,190.410004,93.366792,1492400
PPG,20140325,194.139999,195.089996,192.410004,94.573039,1555400
PPG,20140324,196.100006,196.399994,192.25,94.739763,1008800
PPG,20140321,196.470001,198.139999,194.539993,95.676318,3024800
PPG,20140320,194.479996,196.130005,194.009995,95.489991,1833800
PPG,20140319,198.889999,199.220001,194.449997,95.695936,1495200
PPG,20140318,196.470001,198.809998,196.440002,97.068906,1223200
PPG,20140317,195.190002,197.190002,194.740005,96.088214,1668800
PPG,20140314,194.589996,196.119995,194.25,95.411534,1214000
PPG,20140313,198.229996,198.800003,194.509995,95.573349,1022400
PPG,20140312,197.210007,198.029999,196.199997,96.701147,1605600
PPG,20140311,201.00,201.00,197.449997,96.848245,1772000
PPG,20140310,199.320007,200.830002,198.639999,98.216314,979200
PPG,20140307,200.339996,201.240005,199.240005,98.103537,1540000
PPG,20140306,199.759995,201.289993,199.449997,98.137857,979200
PPG,20140305,200.00,200.960007,199.110001,97.843646,1194200
PPG,20140304,199.75,200.410004,198.679993,98.162376,1354000
PPG,20140303,193.229996,198.339996,193.229996,96.62759,1615400
PPG,20140228,194.039993,198.149994,193.75,97.000258,2879800
PPG,20140227,192.800003,194.669998,191.199997,94.975127,1586200
PPG,20140226,190.399994,194.119995,190.25,94.700534,1781200
PPG,20140225,188.309998,192.00,188.300003,93.543317,1679200
PPG,20140224,189.490005,190.990005,188.50,92.440038,1695400
PPG,20140221,188.770004,190.809998,188.699997,93.102001,2260000
PPG,20140220,187.00,188.880005,186.089996,92.552816,1690800
PPG,20140219,185.649994,188.729996,185.589996,91.72413,1718000
PPG,20140218,188.460007,188.50,186.220001,91.194556,2619800
PPG,20140214,187.229996,189.479996,187.100006,92.323551,1415000
PPG,20140213,185.00,187.839996,184.160004,91.507351,1374400
PPG,20140212,186.029999,187.070007,185.25,90.788898,1361800
PPG,20140211,184.410004,186.619995,183.509995,90.495657,1992200
PPG,20140210,182.130005,184.910004,181.729996,89.894498,2010600
PPG,20140207,180.600006,182.550003,180.50,89.215145,1596800
PPG,20140206,177.429993,179.309998,176.820007,87.445898,1659000
PPG,20140205,175.889999,177.630005,173.830002,86.615036,2258600
PPG,20140204,177.729996,179.440002,176.800003,86.624813,1938000
PPG,20140203,182.509995,183.330002,176.669998,86.443973,2566800
PPG,20140131,182.210007,184.50,181.429993,89.127175,2721200
PPG,20140130,183.699997,185.649994,182.869995,90.25617,1190000
PPG,20140129,182.050003,184.869995,181.660004,89.537717,1591000
PPG,20140128,183.089996,184.660004,181.720001,89.161383,2033200
PPG,20140127,182.00,184.490005,180.429993,89.532833,2781000
PPG,20140124,185.229996,185.699997,181.589996,88.755733,2377200
PPG,20140123,186.710007,188.039993,185.770004,91.34118,2456200
PPG,20140122,190.149994,190.690002,186.589996,91.473143,2843800
PPG,20140121,190.330002,191.539993,189.110001,92.861171,2339600
PPG,20140117,188.50,192.229996,188.50,92.607023,3656400
PPG,20140116,182.570007,189.889999,182.570007,91.722399,3294200
PPG,20140115,191.270004,191.550003,190.429993,93.20329,2111400
PPG,20140114,188.570007,191.009995,187.570007,93.296152,1919400
PPG,20140113,189.929993,191.350006,187.190002,91.766384,2609000
PPG,20140110,190.570007,191.539993,189.630005,93.144643,2090200
PPG,20140109,189.710007,191.229996,189.25,92.92471,2366000
PPG,20140108,188.550003,190.199997,187.410004,92.602138,2006600
PPG,20140107,187.600006,189.139999,186.020004,92.020533,2334800
PPG,20140106,189.630005,189.990005,186.929993,91.649091,1564800
PPG,20140103,189.399994,190.100006,188.880005,92.572815,814200
PPG,20140102,189.50,190.289993,188.529999,92.343105,1368400
PPG,20131231,188.770004,190.070007,188.259995,92.695001,1038800
PPG,20131230,187.820007,188.830002,187.100006,92.113395,1015200
PPG,20131227,188.580002,188.580002,187.25,91.776161,783000
PPG,20131226,187.839996,188.369995,187.25,91.922786,609800
PPG,20131224,185.610001,187.600006,185.610001,91.678414,373000
PPG,20131223,187.399994,187.419998,185.080002,90.661828,1373600
PPG,20131220,185.020004,187.350006,184.770004,91.209218,4534400
PPG,20131219,184.860001,185.809998,184.350006,90.564081,1435200
PPG,20131218,183.759995,185.630005,180.899994,90.529865,1919000
PPG,20131217,183.210007,184.00,181.910004,89.738104,1786800
PPG,20131216,182.910004,184.300003,181.50,89.146722,1908000
PPG,20131213,183.929993,185.139999,182.289993,89.395985,1353400
PPG,20131212,182.220001,184.589996,182.050003,89.889613,1797800
PPG,20131211,187.089996,187.229996,181.490005,89.12229,2164000
PPG,20131210,186.710007,188.00,185.910004,91.566005,1103600
PPG,20131209,188.190002,189.00,186.029999,91.25321,1417000
PPG,20131206,185.00,187.960007,182.960007,91.805485,1894400
PPG,20131205,182.00,183.289993,180.850006,88.843703,1156000
PPG,20131204,181.710007,184.600006,181.710007,89.415532,1929600
PPG,20131203,182.320007,183.229996,180.320007,88.785056,1342800
PPG,20131202,184.339996,185.529999,183.350006,89.762542,1018400
PPG,20131129,185.00,185.570007,183.75,89.958037,394400
PPG,20131127,185.199997,185.550003,184.059998,90.192631,909400
PPG,20131126,184.179993,185.990005,183.759995,90.480995,966400
PPG,20131125,183.820007,185.539993,183.820007,90.021576,974400
PPG,20131122,183.589996,184.229996,182.550003,89.821189,1349200
PPG,20131121,183.309998,183.919998,182.449997,89.596372,1333000
PPG,20131120,184.649994,184.699997,181.800003,89.048974,1337400
PPG,20131119,184.229996,185.50,184.050003,90.300155,625600
PPG,20131118,184.970001,185.539993,184.110001,90.246393,924800
PPG,20131115,186.380005,186.889999,184.669998,90.368579,1367800
PPG,20131114,185.00,185.610001,183.720001,90.700928,1034400
PPG,20131113,181.679993,184.899994,181.570007,90.231732,1962000
PPG,20131112,182.179993,182.990005,181.380005,89.200484,1230400
PPG,20131111,181.729996,183.149994,181.580002,89.029428,1497200
PPG,20131108,180.00,181.789993,179.380005,88.741071,2207200
PPG,20131107,183.289993,184.320007,179.350006,87.797794,1768400
PPG,20131106,182.339996,184.839996,182.339996,89.342223,1724200
PPG,20131105,182.940002,184.460007,181.610001,89.298241,1102800
PPG,20131104,183.50,183.600006,181.669998,89.366438,1215400
PPG,20131101,182.800003,183.389999,181.710007,89.020581,1466600
PPG,20131031,181.740005,184.570007,181.550003,88.937772,1835400
PPG,20131030,186.279999,187.279999,179.130005,88.489626,2376400
PPG,20131029,181.199997,185.679993,181.199997,90.365021,1654600
PPG,20131028,181.929993,182.070007,180.330002,88.114544,1001600
PPG,20131025,179.460007,181.949997,179.089996,88.616274,1139600
PPG,20131024,178.75,179.610001,177.949997,87.417971,723600
PPG,20131023,180.279999,180.440002,178.320007,86.925978,1435200
PPG,20131022,177.850006,180.729996,176.509995,87.739462,1819200
PPG,20131021,175.300003,177.020004,174.449997,86.029685,1685400
PPG,20131018,175.360001,176.580002,173.550003,85.620509,2707800
PPG,20131017,169.75,174.740005,167.240005,84.987255,3069600
PPG,20131016,167.199997,168.009995,165.559998,80.968542,1916000
PPG,20131015,166.119995,166.630005,164.889999,80.608073,911600
PPG,20131014,165.460007,166.50,164.679993,80.924704,1238200
PPG,20131011,164.869995,166.789993,164.570007,81.226714,1818600
PPG,20131010,164.699997,165.949997,163.800003,80.242736,2301400
PPG,20131009,162.979996,164.220001,160.759995,79.146723,2231000
PPG,20131008,167.910004,168.009995,162.699997,79.307473,1740800
PPG,20131007,168.770004,170.199997,167.509995,81.791771,1843000
PPG,20131004,166.139999,171.00,165.970001,83.248245,1846200
PPG,20131003,166.190002,166.830002,165.059998,81.100066,1540800
PPG,20131002,165.529999,166.639999,164.860001,81.173131,1333800
PPG,20131001,167.130005,167.809998,166.100006,81.25594,1185800
PPG,20130930,163.779999,167.130005,163.520004,81.377719,1504800
PPG,20130927,165.440002,166.309998,164.880005,80.505783,1311200
PPG,20130926,165.100006,166.960007,164.789993,81.177999,913600
PPG,20130925,163.940002,165.339996,163.399994,80.198897,1779400
PPG,20130924,163.679993,165.179993,163.210007,79.628972,1591200
PPG,20130923,166.160004,166.160004,163.330002,79.604614,1876400
PPG,20130920,167.990005,172.210007,166.160004,80.997768,1415400
PPG,20130919,167.789993,168.970001,167.199997,81.830741,920400
PPG,20130918,164.649994,167.979996,163.619995,81.743056,1110400
PPG,20130917,165.199997,165.529999,164.240005,80.549622,878400
PPG,20130916,165.199997,165.889999,164.350006,80.471681,858400
PPG,20130913,163.309998,163.979996,162.169998,79.127242,913800
PPG,20130912,164.190002,165.520004,162.309998,79.336699,891200
PPG,20130911,163.580002,164.710007,163.139999,80.091731,806000
PPG,20130910,162.830002,163.710007,162.210007,79.745882,1240200
PPG,20130909,159.539993,161.960007,159.539993,78.737547,834600
PPG,20130906,160.979996,161.179993,157.580002,77.573338,1290200
PPG,20130905,158.850006,161.339996,158.339996,78.216336,639000
PPG,20130904,156.899994,159.429993,156.350006,77.422333,1130200
PPG,20130903,158.539993,159.919998,156.470001,76.579623,992200
PPG,20130830,156.539993,157.25,155.699997,76.092507,748400
PPG,20130829,155.289993,157.240005,155.270004,76.082762,1412400
PPG,20130828,156.940002,157.699997,155.600006,75.873298,1638400
PPG,20130827,158.279999,159.00,157.00,76.847532,1072000
PPG,20130826,162.639999,162.850006,159.759995,78.070199,858400
PPG,20130823,160.460007,162.419998,158.690002,79.02982,1401800
PPG,20130822,159.429993,160.479996,157.860001,78.01174,660600
PPG,20130821,158.809998,160.559998,157.800003,77.505142,887400
PPG,20130820,156.949997,160.050003,156.809998,77.436946,1613600
PPG,20130819,158.149994,159.330002,156.520004,76.384772,1051600
PPG,20130816,158.059998,159.380005,157.570007,77.25184,1377800
PPG,20130815,161.00,161.00,158.289993,77.339524,1157400
PPG,20130814,162.960007,163.429993,161.960007,79.09314,1328600
PPG,20130813,160.869995,163.300003,160.410004,79.283115,1327800
PPG,20130812,161.020004,161.910004,160.270004,78.591411,1501200
PPG,20130809,161.470001,162.729996,160.809998,78.761904,825800
PPG,20130808,162.029999,162.720001,160.380005,78.8301,1592600
PPG,20130807,160.940002,161.929993,160.100006,78.172487,1053200
PPG,20130806,161.570007,161.649994,159.539993,78.332628,1322400
PPG,20130805,161.619995,162.539993,160.679993,78.560706,1447000
PPG,20130802,162.490005,163.539993,160.449997,78.788785,998000
PPG,20130801,156.259995,165.639999,156.259995,78.982891,953600
PPG,20130731,161.50,162.259995,160.009995,77.857063,1263000
PPG,20130730,161.089996,161.639999,160.00,78.15308,1307000
PPG,20130729,158.229996,161.479996,157.419998,78.21131,1548400
PPG,20130726,158.50,158.50,156.380005,76.241106,1044400
PPG,20130725,157.089996,158.789993,156.940002,77.027245,1127600
PPG,20130724,159.559998,159.869995,156.179993,76.226549,1704000
PPG,20130723,160.770004,161.339996,158.940002,77.221358,1342200
PPG,20130722,159.009995,161.130005,158.910004,77.512517,2017000
PPG,20130719,160.070007,160.940002,159.020004,77.235915,1756800
PPG,20130718,156.789993,161.470001,156.179993,77.643542,2736800
PPG,20130717,155.639999,156.929993,155.380005,76.119788,1294000
PPG,20130716,157.039993,157.089996,154.130005,75.139536,1139400
PPG,20130715,157.979996,158.039993,156.710007,76.182876,850600
PPG,20130712,157.910004,158.130005,156.190002,76.541972,1584600
PPG,20130711,159.119995,159.509995,157.130005,76.687556,1771000
PPG,20130710,156.580002,157.00,155.360001,75.721861,1164400
PPG,20130709,154.529999,156.789993,153.039993,75.959647,1716000
PPG,20130708,153.300003,153.649994,151.309998,74.358248,1203000
PPG,20130705,150.570007,152.699997,150.570007,73.965179,1289200
PPG,20130703,147.139999,149.940002,144.580002,72.591858,738400
PPG,20130702,147.850006,149.820007,147.740005,72.344371,1403800
PPG,20130701,147.050003,150.190002,146.559998,72.033798,1363000
PPG,20130628,147.919998,148.240005,146.00,71.048696,4672000
PPG,20130627,150.100006,150.520004,148.339996,72.320106,1559800
PPG,20130626,148.690002,149.960007,146.899994,72.305549,1524600
PPG,20130625,149.179993,150.240005,146.770004,71.737781,1300400
PPG,20130624,148.830002,148.869995,145.210007,71.179714,1538400
PPG,20130621,151.910004,152.039993,147.630005,72.257019,2092600
PPG,20130620,152.25,152.759995,149.610001,72.829644,2130400
PPG,20130619,156.320007,157.220001,154.089996,74.814405,1002000
PPG,20130618,156.039993,156.75,155.110001,75.979062,1032400
PPG,20130617,155.00,156.940002,154.360001,75.755834,1115600
PPG,20130614,154.369995,155.720001,153.110001,74.649414,919400
PPG,20130613,150.460007,155.899994,150.460007,75.348207,1655200
PPG,20130612,153.350006,153.690002,150.679993,73.251828,818600
PPG,20130611,151.789993,153.830002,151.009995,73.712835,881200
PPG,20130610,155.990005,155.990005,153.100006,74.862935,636600
PPG,20130607,153.089996,155.339996,152.520004,75.178359,1367000
PPG,20130606,149.149994,151.580002,149.039993,73.407119,888200
PPG,20130605,153.059998,153.449997,149.929993,72.785971,1146200
PPG,20130604,154.889999,156.210007,152.850006,74.518389,1132000
PPG,20130603,154.470001,155.289993,152.199997,75.285119,1323200
PPG,20130531,155.630005,156.539993,153.610001,74.542654,1100600
PPG,20130530,157.389999,157.630005,155.720001,75.852887,809600
PPG,20130529,156.210007,157.919998,155.580002,76.236256,767800
PPG,20130528,158.889999,159.50,156.080002,76.347867,1137000
PPG,20130524,155.639999,157.429993,154.330002,76.10523,1100600
PPG,20130523,155.429993,157.899994,154.360001,76.119788,1117600
PPG,20130522,158.889999,160.830002,156.589996,76.454627,1292600
PPG,20130521,157.539993,159.429993,157.020004,77.129155,1410400
PPG,20130520,158.360001,158.479996,155.800003,76.216841,1293000
PPG,20130517,156.710007,158.889999,155.889999,77.080625,1144800
PPG,20130516,156.070007,157.399994,155.399994,75.484083,991000
PPG,20130515,156.059998,157.850006,155.570007,75.930532,1648600
PPG,20130514,153.490005,156.860001,153.339996,76.095523,1248600
PPG,20130513,153.649994,153.970001,152.429993,74.348548,763400
PPG,20130510,153.789993,154.600006,153.110001,74.794997,1081600
PPG,20130509,154.660004,155.130005,153.580002,74.693087,1772000
PPG,20130508,152.960007,155.179993,152.380005,75.285119,1932400
PPG,20130507,151.880005,153.380005,151.779999,74.057382,1017600
PPG,20130506,152.130005,152.130005,150.610001,73.351702,1144200
PPG,20130503,150.600006,152.580002,150.009995,73.603041,2041200
PPG,20130502,145.880005,148.880005,145.309998,71.766347,1647000
PPG,20130501,145.820007,147.089996,145.110001,70.180992,2144400
PPG,20130430,147.100006,147.360001,145.630005,71.118673,1635800
PPG,20130429,145.639999,147.210007,144.880005,71.060674,1112400
PPG,20130426,146.759995,146.850006,144.25,70.050488,1144800
PPG,20130425,146.00,148.559998,145.460007,71.007507,1935800
PPG,20130424,145.00,145.850006,144.350006,70.074656,1783800
PPG,20130423,143.949997,144.880005,143.119995,69.987659,1593400
PPG,20130422,141.619995,144.050003,140.809998,69.383483,2211400
PPG,20130419,140.660004,142.229996,139.600006,68.436133,3607000
PPG,20130418,135.660004,142.00,135.660004,67.981793,4781000
PPG,20130417,133.389999,133.979996,131.75,63.994236,2198600
PPG,20130416,132.710007,134.669998,132.110001,65.033422,2623000
PPG,20130415,135.169998,135.460007,131.389999,63.530234,2477400
PPG,20130412,136.949997,137.440002,135.520004,65.855099,1380000
PPG,20130411,134.690002,138.130005,134.619995,66.512442,2174000
PPG,20130410,133.110001,134.880005,132.820007,65.08659,2082200
PPG,20130409,131.520004,132.949997,131.380005,64.115071,2561800
PPG,20130408,131.600006,132.059998,130.559998,63.535064,2031800
PPG,20130405,131.729996,132.75,130.630005,63.670399,1768600
PPG,20130404,133.039993,134.889999,132.50,64.719246,1830600
PPG,20130403,134.050003,134.050003,132.199997,64.148908,2736200
PPG,20130402,134.759995,134.990005,133.190002,64.617749,1682000
PPG,20130401,133.649994,134.470001,133.199997,64.84492,3316800
PPG,20130328,133.330002,134.089996,132.869995,64.738584,2106800
PPG,20130327,133.070007,133.699997,131.949997,64.487245,1873000
PPG,20130326,134.690002,135.899994,133.830002,64.786914,2388200
PPG,20130325,136.309998,136.470001,132.639999,64.714416,2310800
PPG,20130322,136.990005,138.240005,135.600006,65.719764,1468800
PPG,20130321,139.130005,140.059998,137.270004,66.357769,2032800
PPG,20130320,141.360001,142.160004,140.839996,68.155795,1729000
PPG,20130319,141.690002,141.710007,139.539993,68.088128,1732200
PPG,20130318,139.009995,141.860001,138.720001,68.199301,1337200
PPG,20130315,142.119995,143.50,139.110001,68.295968,3185200
PPG,20130314,141.800003,143.229996,141.610001,68.745471,1949400
PPG,20130313,139.059998,141.660004,138.960007,68.402303,2648000
PPG,20130312,137.550003,139.289993,137.550003,67.251952,2597600
PPG,20130311,136.910004,137.960007,136.910004,66.594609,1740800
PPG,20130308,136.210007,137.539993,135.479996,66.381938,2103800
PPG,20130307,135.720001,135.960007,134.910004,65.478094,1932800
PPG,20130306,136.559998,136.910004,134.759995,65.468425,2598400
PPG,20130305,136.00,136.949997,135.789993,65.840599,1673800
PPG,20130304,134.600006,135.649994,134.179993,65.536092,1574600
PPG,20130301,133.639999,135.419998,132.710007,65.159088,1854200
PPG,20130228,134.919998,135.880005,134.610001,65.08659,2700600
PPG,20130227,132.110001,135.419998,131.860001,65.08659,2088800
PPG,20130226,130.630005,133.059998,130.630005,64.129571,3456800
PPG,20130225,132.850006,133.779999,130.279999,62.979226,3971600
PPG,20130222,130.369995,132.369995,130.100006,63.955575,3289800
PPG,20130221,130.649994,130.649994,128.199997,62.872891,4398400
PPG,20130220,135.279999,135.50,131.490005,63.564064,5181200
PPG,20130219,138.679993,139.25,135.529999,65.308926,5937200
PPG,20130215,139.779999,140.070007,138.50,67.079882,3477600
PPG,20130214,138.660004,139.360001,137.910004,66.892199,4826200
PPG,20130213,137.020004,139.770004,136.949997,66.945136,7626000
PPG,20130212,138.389999,138.389999,135.449997,65.665039,8948200
PPG,20130211,139.149994,139.699997,138.149994,67.060636,8051600
PPG,20130208,137.990005,139.279999,137.389999,66.834453,8719400
PPG,20130207,138.770004,139.00,136.029999,66.396524,15494000
PPG,20130206,137.929993,138.869995,136.860001,66.56977,9345000
PPG,20130205,139.429993,140.440002,137.00,66.589016,12343000
PPG,20130204,139.740005,140.289993,138.360001,66.863326,11622000
PPG,20130201,139.350006,140.919998,137.949997,67.64293,20167400
PPG,20130131,139.169998,140.199997,137.770004,66.348397,4834800
PPG,20130130,140.789993,142.910004,139.759995,67.484121,4009600
PPG,20130129,140.00,141.300003,139.130005,67.88355,10351800
PPG,20130128,138.699997,141.75,137.169998,67.373438,16384600
PPG,20130125,145.00,147.990005,142.669998,69.399457,26017800
PPG,20130124,143.00,146.110001,142.529999,69.288766,20920000
PPG,20130123,142.360001,143.770004,141.860001,69.014464,23592400
PPG,20130122,142.789993,143.740005,141.039993,68.706472,11673200
PPG,20130118,141.470001,143.50,137.75,68.687218,11176800
PPG,20130117,139.529999,142.75,139.119995,68.326289,8565000
PPG,20130116,139.440002,139.690002,137.00,66.954762,9656600
PPG,20130115,139.880005,141.50,139.300003,67.440811,4872800
PPG,20130114,140.50,142.75,140.00,67.869113,5870600
PPG,20130111,141.830002,142.869995,140.919998,68.384042,5700400
PPG,20130110,142.259995,142.380005,139.990005,68.225233,6312400
PPG,20130109,140.690002,142.740005,140.479996,68.047169,6973400
PPG,20130108,138.289993,140.479996,136.199997,67.484121,9107000
PPG,20130107,139.139999,139.270004,137.080002,66.53608,5349000
PPG,20130104,138.00,139.610001,137.25,67.118382,3902400
PPG,20130103,138.690002,138.970001,137.179993,66.29065,5271400
PPG,20130102,138.339996,140.410004,137.419998,66.675643,6377600
